Mesure50
temps(s);entree;sortie
0.0;1.0;-0.22931505242510938
3.77746611654e-05;0.9996829223075361;-0.22888791174887232
7.55493223308e-05;0.9987318903066703;-0.22831562057085486
0.000113323983496;0.9971475070994674;-0.2275985418125892
0.000151098644662;0.99493077743107;-0.2267371302134314
0.000188873305827;0.992083107052534;-0.22573193204218558
0.000226647966992;0.9886063018293647;-0.22458358475068513
0.000264422628158;0.9845025665963167;-0.22329281656954852
0.000302197289323;0.9797745037591863;-0.22186044604636865
0.000339971950489;0.9744251116444819;-0.220287381526626
0.000377746611654;0.9684577825980192;-0.21857462057765653
0.000415521272819;0.9618763008336467;-0.2167232493560392
0.000453295933985;0.954684840033466;-0.21473444191880364
0.00049107059515;0.946887960701069;-0.2126094594788958
0.000528845256316;0.93849060726947;-0.2103496496053728
0.000566619917481;0.9294981049655668;-0.2079564453688349
0.000604394578647;0.9199161564331194;-0.20543136443263582
0.000642169239812;0.9097508381163879;-0.20277600809044868
0.000679943900977;0.899008596406722;-0.19999206025079688
0.000717718562143;0.8876962435545485;-0.19708128636919414
0.000755493223308;0.8758209533493445;-0.19404553232857194
0.000793267884474;0.8633902565703414;-0.1908867232687023
0.000831042545639;0.8504120362108399;-0.18760686236536062
0.000868817206804;0.8368945224791678;-0.18420802956000046
0.00090659186797;0.8228462875794489;-0.18069238024074788
0.000944366529135;0.8082762402754935;-0.17706214387555025
0.000982141190301;0.7931936202412582;-0.17331962259834702
0.00101991585147;0.7776079922014564;-0.16946718974915942
0.00105769051263;0.761529239866037;-0.16550728836902373
0.0010954651738;0.7449675596623766;-0.16144242965072406
0.00113323983496;0.7279334542691597;-0.15727519134630547
0.00117101449613;0.7104377259560488;-0.15300821613237908
0.00120878915729;0.692491469733367;-0.14864420993425417
0.00124656381846;0.6741060663161371;-0.14418594020996106
0.00128433847962;0.6552931749069403;-0.13963623419525298
0.00132211314079;0.6360647258021697;-0.13499797711069883
0.00135988780195;0.616432912826369;-0.13027411033200564
0.00139766246312;0.5964101855994527;-0.12546762952472865
0.00143543712429;0.5760092416417125;-0.12058158274455438
0.00147321178545;0.5552430183216173;-0.11561906850435964
0.00151098644662;0.5341246846515095;-0.11058323380927251
0.00154876110778;0.512667632936407;-0.10547727216098232
0.00158653576895;0.4908854702811999;-0.1003044215325639
0.00162431043011;0.468792009961631;-0.09506796231509848
0.00166208509128;0.4464012626645338;-0.08977121523739683
0.00169985975244;0.42372742760287924;-0.08441753926014085
0.00173763441361;0.4007848835112687;-0.0790103294457807
0.00177540907477;0.3775881795275817;-0.07355301480553758
0.00181318373594;0.35415202596656226;-0.06804905612487784
0.00185095839711;0.3304912849911928;-0.06250194376883719
0.00188873305827;0.3066209611877746;-0.056915195468587136
0.00192650771944;0.2825561920506874;-0.05129235409064645
0.0019642823806;0.25831223838286654;-0.04563698539015355
0.00200205704177;0.23390447461808242;-0.03995267574962361
0.00203983170293;0.2093483790711605;-0.03424302990462477
0.0020776063641;0.18465952412232445;-0.028511668657815608
0.00211538102526;0.15985356634188824;-0.02276222658279387
0.00215315568643;0.1349462365615566;-0.01699834971921175
0.00219093034759;0.10995332989863325;-0.011223693260620204
0.00222870500876;0.08489069573946416;-0.005441919236508707
0.00226647966992;0.05977422768846161;0.0003433058099909641
0.00230425433109;0.034619853489090295;0.006128313147262603
0.00234202899226;0.0094435249232039;0.011909434181751279
0.00237980365342;-0.015738792304865468;0.017683002784422207
0.00241757831459;-0.04091112869304266;0.023445357615655745
0.00245535297575;-0.06605752106865546;0.029192844447105706
0.00249312763692;-0.09116202271156759;0.03492181847904817
0.00253090229808;-0.11620871346687604;0.04062864665175062
0.00256867695925;-0.14118170984076436;0.046309709949396635
0.00260645162041;-0.16606517507310362;0.05196140569510374
0.00264422628158;-0.1908433291804215;0.05758014983558092
0.00268200094274;-0.21550045896286182;0.06316237921397486
0.00271977560391;-0.24002092796879618;0.06870455382946536
0.00275755026507;-0.264389186410764;0.07420315908217587
0.00279532492624;-0.2885897810264529;0.0796547080019758
0.00283309958741;-0.31260736487846846;0.08505574345976138
0.00287087424857;-0.3364267070866785;0.09040284035981297
0.00290864890974;-0.3600327024869557;0.09569260781183754
0.0029464235709;-0.3834103812102005;0.10092169128132039
0.00298419823207;-0.40654491817556376;0.10608677471682122
0.00302197289323;-0.4294216424918509;0.11118458265286574
0.0030597475544;-0.4520260467611475;0.11621188228710003
0.00309752221556;-0.4743437962787628;0.12116548553038933
0.00313529687673;-0.4963607381236604;0.12604225102856206
0.00317307153789;-0.5180629101336105;0.1308390861545167
0.00321084619906;-0.5394365497593675;0.13555294896942727
0.00324862086023;-0.5604681027922681;0.14018085015180615
0.00328639552139;-0.5811442319597027;0.14471985489319747
0.00332417018256;-0.6014518253830199;0.1491670847593022
0.00336194484372;-0.6213780048924956;0.15351971951535284
0.00339971950489;-0.6409101341940935;0.15777499891458024
0.00343749416605;-0.6600358268828372;0.16193022444863903
0.00347526882722;-0.6787429542977176;0.165982761058881
0.00351304348838;-0.6970196532131485;0.16993003880739238
0.00355081814955;-0.7148543333620934;0.17376955450673295
0.00358859281071;-0.732235684786098;0.17749887330734665
0.00362636747188;-0.7491526850075588;0.18111563024163377
0.00366414213304;-0.7655946060196892;0.18461753172370865
0.00370191679421;-0.7815510210897404;0.1880023570038888
0.00373969145538;-0.7970118113711714;0.19126795957699574
0.00377746611654;-0.8119671723205705;0.19441226854357282
0.00381524077771;-0.8264076199152576;0.1974332899231569
0.00385301543887;-0.8403239966676301;0.20032910791877226
0.00389079010004;-0.8537074774324318;0.20309788613184307
0.0039285647612;-0.8665495750032662;0.20573786872675587
0.00396633942237;-0.8788421454948057;0.20824738154433206
0.00400411408353;-0.8905773935072777;0.21062483316350475
0.0040418887447;-0.9017478770699621;0.21286871591052722
0.00407966340586;-0.9123465123605554;0.21497760681507241
0.00411743806703;-0.9223665781974149;0.21695016851261686
0.00415521272819;-0.9318017203018334;0.21878515009253813
0.00419298738936;-0.940645955327637;0.22048138789138585
0.00423076205053;-0.9488936746555591;0.2220378062308259
0.00426853671169;-0.9565396479499741;0.22345341809978708
0.00430631137286;-0.9635790264757448;0.22472732578037974
0.00434408603402;-0.9700073461730725;0.22585872141718832
0.00438186069519;-0.9758205304884047;0.2268468875295773
0.00441963535635;-0.9810148929596045;0.22769119746668523
0.00445741001752;-0.9855871395537394;0.22839111580481897
0.00449518467868;-0.9895343707560107;0.2289461986869954
0.00453295933985;-0.9928540834084959;0.2293560941044157
0.00457073400101;-0.9955441722975399;0.22962054211969365
0.00460850866218;-0.9976029314887879;0.22973937503169636
0.00464628332335;-0.9990290554090123;0.22971251748189273
0.00468405798451;-0.9998216396740497;0.2295399865021426
0.00472183264568;-0.9999801816623203;0.22922189150389588
0.00475960730684;-0.9995045808335686;0.22875843420880862
0.00479738196801;-0.9983951387926212;0.22814990852082012
0.00483515662917;-0.9966525590981226;0.22739670033977236
0.00487293129034;-0.9942779468163698;0.2264992873166893
0.0049107059515;-0.9912728078205283;0.22545823855087202
0.00494848061267;-0.9876390478356748;0.22427421422900137
0.00498625527383;-0.9833789712302713;0.2229479652064769
0.005024029935;-0.9784952795548373;0.22148033253125807
0.00506180459616;-0.9729910698287471;0.21987224691050886
0.00509957925733;-0.9668698325762379;0.21812472812038514
0.0051373539185;-0.9601354496128764;0.216238884359338
0.00517512857966;-0.9527921915838827;0.21421591154534356
0.00521290324083;-0.9448447152558789;0.21205709255750543
0.00525067790199;-0.936298060563775;0.2097637964225098
0.00528845256316;-0.9271576474146666;0.20733747744644984
0.00532622722432;-0.9174292722507734;0.2047796742925699
0.00536400188549;-0.9071191043735918;0.20209200900551355
0.00540177654665;-0.8962336820316009;0.19927618598269548
0.00543955120782;-0.8847799082739959;0.1963339908934486
0.00547732586898;-0.8727650465730827;0.1932672895466322
0.00551510053015;-0.8601967162181086;0.1900780267074194
0.00555287519132;-0.847082887483447;0.18676822486401357
0.00559064985248;-0.8334318765742079;0.1833399829450769
0.00562842451365;-0.8192523403524686;0.1797954749886829
0.00566619917481;-0.8045532708474802;0.17613694876363928
0.00570397383598;-0.7893439895533224;0.17236672434405242
0.00574174849714;-0.7736341415176284;0.16848719263804027
0.00577952315831;-0.7574336892251275;0.16450081387152543
0.00581729781947;-0.7407529062798784;0.16041011602806887
0.00585507248064;-0.7236023708902113;0.15621769324573628
0.0058928471418;-0.7059929591604975;0.15192620417201091
0.00593062180297;-0.6879358381940106;0.14753837027779812
0.00596839646413;-0.6694424590112483;0.14305697413159027
0.0060061711253;-0.6505245492882045;0.1384848576348853
0.00604394578647;-0.631194105919202;0.13382492021998024
0.00608172044763;-0.6114633874089961;0.12908011701128017
0.0061194951088;-0.5913449060989778;0.12425345695129007
0.00615726976996;-0.570851420232408;0.1193480008924786
0.00619504443113;-0.5499959258637032;0.1143668596562206
0.00623281909229;-0.5287916486169243;0.10931319206005449
0.00627059375346;-0.50725203529867;0.10419020291449983
0.00630836841462;-0.4853907453707156;0.09900114099071022
0.00634614307579;-0.4632216422877893;0.09374929696024718
0.00638391773695;-0.44075878470599184;0.08843800130828375
0.00642169239812;-0.4180164175674188;0.08307062222155842
0.00645946705928;-0.3950089630666571;0.077650563452422
0.00649724172045;-0.3717510115048711;0.07218126216032932
0.00653501638162;-0.34825731203728777;0.06666618673214697
0.00657279104278;-0.3245427633199346;0.06110883458265563
0.00661056570395;-0.3006224040615835;0.05551272993664723
0.00664834036511;-0.2765114034868668;0.049881421594017455
0.00668611502628;-0.25222505171663495;0.04421848067927598
0.00672388968744;-0.2277787500716433;0.0385274983768984
0.00676166434861;-0.2031880013057207;0.03281208365395712
0.00679943900977;-0.17846839977461817;0.02707586097147618
0.00683721367094;-0.15363562154675828;0.021322467985958413
0.0068749883321;-0.1287054144621786;0.015555553242547598
0.00691276299327;-0.10369358814594837;0.009778773861282493
0.00695053765444;-0.07861600398241289;0.00399579321791526
0.0069883123156;-0.053488565056610454;-0.0017897213792381706
0.00702608697677;-0.02832720606924441;-0.0075741010149416406
0.00706386163793;-0.003147883231610481;-0.013353677493700294
0.0071016362991;0.022033435853125897;-0.019124785665967727
0.00713941096026;0.04720078231586844;-0.024883765752419695
0.00717718562143;0.07233819614833167;-0.030626965664822283
0.00721496028259;0.09742973632417148;-0.03635074332202452
0.00725273494376;0.12245949090806921;-0.04205146895960297
0.00729050960492;0.14741158714637206;-0.04772552743169655
0.00732828426609;0.17227020153288614;-0.053369320503570995
0.00736605892725;0.19701956984343466;-0.05897926913345796
0.00740383358842;0.22164399713283164;-0.06455181574222504
0.00744160824959;0.24612786768790904;-0.0700834264694321
0.00747938291075;0.2704556549303113;-0.07557059341434938
0.00751715757192;0.2946119312627562;-0.08100983686051094
0.00755493223308;0.31858137785252594;-0.08639770748239509
0.00759270689425;0.34234879434599275;-0.09173078853283385
0.00763048155541;0.3658991085080015;-0.09700569800976085
0.00766825621658;0.38921738578000953;-0.10221909080092624
0.00770603087774;0.4122888387509185;-0.107367660805218
0.00774380553891;0.43509883653458703;-0.11244814302924283
0.00778158020007;0.4576329140480921;-0.11745731565784069
0.00781935486124;0.47987678118483257;-0.12239200209721479
0.0078571295224;0.5018163318766827;-0.1272490729893868
0.00789490418357;0.5234376530394286;-0.13202544819669554
0.00793267884474;0.5447270333958263;-0.136718098755083
0.0079704535059;0.5656709721706794;-0.14132404879492766
0.00800822816707;0.586256187652433;-0.14584037742820918
0.00804600282823;0.6064696256158396;-0.1502642206008047
0.0080837774894;0.6262984676003668;-0.1545927729087442
0.00812155215056;0.6457301390390937;-0.15882328937727286
0.00815932681173;0.664752317232938;-0.16295308720159082
0.00819710147289;0.6833529391651659;-0.16697954744816923
0.00823487613406;0.7015202091512158;-0.17090011671556057
0.00827265079522;0.7192426063189974;-0.1747123087536521
0.00831042545639;0.7365088919149121;-0.1784137060403343
0.00834820011756;0.7533081164309712;-0.18200196131458593
0.00838597477872;0.7696296265484857;-0.1854747990650025
0.00842374943989;0.7854630718939243;-0.18883001697282353
0.00846152410105;0.80079841160266;-0.1920654873085454
0.00849929876222;0.8156259206864356;-0.19517915828123159
0.00853707342338;0.8299361962005212;-0.19816905533966808
0.00857484808455;0.8437201632066396;-0.20103328242453483
0.00861262274571;0.8569690805278882;-0.20377002317080234
0.00865039740688;0.8696745462920044;-0.20637754205958936
0.00868817206804;0.8818285032594537;-0.20885418551875096
0.00872594672921;0.8934232439329782;-0.2111983829715011
0.00876372139037;0.9044514154453429;-0.2134086478324018
0.00880149605154;0.9149060242221972;-0.2154835784500894
0.00883927071271;0.9247804404170885;-0.2174218589961394
0.00887704537387;0.9340684021158129;-0.2192222602995059
0.00891482003504;0.9427640193074446;-0.2208836406260074
0.0089525946962;0.9508617776195161;-0.22240494640236344
0.00899036935737;0.9583565418149882;-0.22378521288432382
0.00902814401853;0.9652435590487877;-0.22502356476846644
0.0090659186797;0.9715184618818491;-0.22611921674727542
0.00910369334086;0.9771772710507513;-0.22707147400714842
0.00914146800203;0.9822163979911875;-0.22787973266901626
0.00917924266319;0.9866326471136732;-0.22854348017129614
0.00921701732436;0.9904232178300463;-0.22906229559493527
0.00925479198553;0.9935857063294745;-0.22943584993033886
0.00929256664669;0.9961181071028467;-0.22966390628601366
0.00933034130786;0.9980188142145753;-0.22974632003879358
0.00936811596902;0.9992866223210104;-0.22968303892555356
0.00940589063019;0.9999207274348142;-0.22947410307635224
0.00944366529135;0.9999207274348142;-0.2291196449889836
0.00948143995252;0.9992866223210104;-0.2286198894449524
0.00951921461368;0.9980188142145754;-0.22797515336692808
0.00955698927485;0.9961181071028469;-0.22718584561776636
0.00959476393601;0.9935857063294746;-0.22625246674122668
0.00963253859718;0.9904232178300464;-0.22517560864454989
0.00967031325834;0.9866326471136735;-0.22395595422309672
0.00970808791951;0.982216397991188;-0.22259427692728634
0.00974586258068;0.9771772710507518;-0.2210914402721084
0.00978363724184;0.9715184618818494;-0.21944839728952034
0.00982141190301;0.965243559048788;-0.2176661899240774
0.00985918656417;0.9583565418149889;-0.2157459483721774
0.00989696122534;0.9508617776195168;-0.21368889036534078
0.0099347358865;0.9427640193074452;-0.21149632039797975
0.00997251054767;0.9340684021158133;-0.2091696289001458
0.0100102852088;0.9247804404170891;-0.2067102913557815
0.01004805987;0.9149060242221982;-0.20411986736703394
0.0100858345312;0.9044514154453439;-0.20139999966522484
0.0101236091923;0.8934232439329792;-0.19855241306910354
0.0101613838535;0.8818285032594539;-0.19557891339104383
0.0101991585147;0.8696745462920046;-0.19248138629187905
0.0102369331758;0.8569690805278894;-0.18926179608509888
0.010274707837;0.8437201632066408;-0.18592218449117023
0.0103124824982;0.8299361962005224;-0.18246466934276895
0.0103502571593;0.8156259206864364;-0.17889144324174472
0.0103880318205;0.8007984116026609;-0.17520477216867136
0.0104258064817;0.7854630718939257;-0.17140699404586218
0.0104635811428;0.7696296265484871;-0.1675005172547645
0.010501355804;0.7533081164309726;-0.16348781910867152
0.0105391304651;0.7365088919149124;-0.15937144428172037
0.0105769051263;0.7192426063189983;-0.15515400319517447
0.0106146797875;0.7015202091512174;-0.15083817036200928
0.0106524544486;0.6833529391651676;-0.14642668269085632
0.0106902291098;0.6647523172329398;-0.14192233775037785
0.010728003771;0.6457301390390947;-0.13732799199517323
0.0107657784321;0.6262984676003686;-0.13264655895434374
0.0108035530933;0.6064696256158415;-0.12788100738386118
0.0108413277545;0.5862561876524349;-0.12303435938391614
0.0108791024156;0.5656709721706812;-0.11810968848243664
0.0109168770768;0.5447270333958274;-0.11311011768599365
0.010954651738;0.5234376530394306;-0.10803881749933045
0.0109924263991;0.5018163318766847;-0.1028990039147688
0.0110302010603;0.4798767811848345;-0.0976939363727709
0.0110679757215;0.45763291404809253;-0.09242691569494703
0.0111057503826;0.43509883653458825;-0.08710128199082329
0.0111435250438;0.41228883875091976;-0.08172041253969095
0.011181299705;0.38921738578001164;-0.07628771964888806
0.0112190743661;0.3658991085080036;-0.07080664848986593
0.0112568490273;0.342348794345994;-0.06528067491341506
0.0112946236885;0.3185813778525272;-0.059713303245436326
0.0113323983496;0.29461193126275753;-0.05410806406465266
0.0113701730108;0.2704556549303135;-0.048468511963674375
0.011407947672;0.24612786768791123;-0.04279822329483489
0.0114457223331;0.22164399713283212;-0.03710079390222723
0.0114834969943;0.197019569843436;-0.03137983684138177
0.0115212716554;0.1722702015328875;-0.025638980088025197
0.0115590463166;0.14741158714637428;-0.01988186423738174
0.0115968209778;0.12245949090807146;-0.014112140195469742
0.0116345956389;0.09742973632417286;-0.008333466863859726
0.0116723703001;0.07233819614833305;-0.002549508819363079
0.0117101449613;0.04720078231586982;0.003236066009880288
0.0117479196224;0.022033435853128162;0.009019588670437508
0.0117856942836;-0.0031478832316082146;0.014797391510269535
0.0118234689448;-0.028327206069243032;0.020565810504592642
0.0118612436059;-0.05348856505660819;0.026321187579438653
0.0118990182671;-0.07861600398241063;0.03205987293144346
0.0119367929283;-0.10369358814594612;0.0377782273423887
0.0119745675894;-0.12870541446217634;0.043472624487031715
0.0120123422506;-0.15363562154675692;0.04913945323275955
0.0120501169118;-0.17846839977461684;0.05477511992960741
0.0120878915729;-0.20318800130571849;0.06037605068919144
0.0121256662341;-0.2277787500716411;0.06593869365111063
0.0121634408953;-0.2522250517166319;0.07145952123537547
0.0122012155564;-0.27651140348686637;0.0769350323794453
0.0122389902176;-0.3006224040615822;0.08236175475844132
0.0122767648788;-0.3245427633199341;0.08773624698714556
0.0123145395399;-0.3482573120372856;0.09305510080236917
0.0123523142011;-0.37175101150486983;0.09831494322432431
0.0123900888623;-0.39500896306665584;0.10351243869561487
0.0124278635234;-0.41801641756741675;0.10864429119649921
0.0124656381846;-0.44075878470599056;0.11370724633507999
0.0125034128458;-0.4632216422877873;0.11869809341109169
0.0125411875069;-0.4853907453707136;0.12361366745198642
0.0125789621681;-0.5072520352986689;0.1284508512200158
0.0126167368292;-0.5287916486169223;0.13320657718904508
0.0126545114904;-0.549995925863702;0.13787782948984245
0.0126922861516;-0.5708514202324068;0.14246164582260668
0.0127300608127;-0.591344906098976;0.1469551193355265
0.0127678354739;-0.6114633874089943;0.15135540046817725
0.0128056101351;-0.6311941059192009;0.15565969875858318
0.0128433847962;-0.6505245492882027;0.15986528461280483
0.0128811594574;-0.669442459011247;0.16396949103592653
0.0129189341186;-0.6879358381940086;0.1679697153233436
0.0129567087797;-0.7059929591604959;0.17186342071128388
0.0129944834409;-0.7236023708902104;0.17564813798550796
0.0130322581021;-0.740752906279877;0.1793214670471757
