Mesure8
temps(s);entree;sortie
0.0;1.0;10.706524999242111
0.000891022423517;0.9996829223075361;10.736254631130691
0.00178204484703;0.9987318903066703;10.759175809330985
0.00267306727055;0.9971475070994674;10.775273998254406
0.00356408969407;0.99493077743107;10.784538989147757
0.00445511211758;0.992083107052534;10.786964906567178
0.0053461345411;0.9886063018293647;10.782550212104072
0.00623715696462;0.9845025665963167;10.771297705360702
0.00712817938813;0.9797745037591863;10.753214522174817
0.00801920181165;0.9744251116444819;10.728312130094409
0.00891022423517;0.9684577825980192;10.696606321105516
0.00980124665868;0.9618763008336467;10.658117201617639
0.0106922690822;0.9546848400334659;10.612869179713165
0.0115832915057;0.946887960701069;10.560890949668838
0.0124743139292;0.93849060726947;10.502215473759144
0.0133653363528;0.9294981049655667;10.436879961353092
0.0142563587763;0.9199161564331194;10.364925845317702
0.0151473811998;0.9097508381163878;10.286398755743125
0.0160384036233;0.899008596406722;10.201348491006078
0.0169294260468;0.8876962435545485;10.109828986189934
0.0178204484703;0.8758209533493445;10.011898278881498
0.0187114708939;0.8633902565703414;9.907618472366158
0.0196024933174;0.8504120362108399;9.797055696244755
0.0204935157409;0.8368945224791677;9.68028006449714
0.0213845381644;0.8228462875794489;9.557365631019016
0.0222755605879;0.8082762402754934;9.428390342660254
0.0231665830114;0.7931936202412581;9.293435989794492
0.024057605435;0.7776079922014563;9.15258815445132
0.0249486278585;0.761529239866037;9.005936156043978
0.025839650282;0.7449675596623765;8.853572994726958
0.0267306727055;0.7279334542691596;8.695595292419485
0.027621695129;0.7104377259560487;8.532103231532167
0.0285127175525;0.6924914697333668;8.363200491435814
0.0294037399761;0.6741060663161371;8.188994182712586
0.0302947623996;0.6552931749069402;8.009594779231245
0.0311857848231;0.6360647258021697;7.825116048089566
0.0320768072466;0.6164329128263689;7.635674977468304
0.0329678296701;0.5964101855994525;7.441391702442521
0.0338588520936;0.5760092416417124;7.242389428797277
0.0347498745172;0.5552430183216172;7.038794354896019
0.0356408969407;0.5341246846515094;6.8307355916512
0.0365319193642;0.512667632936407;6.6183450806479165
0.0374229417877;0.4908854702811999;6.401757510472432
0.0383139642112;0.468792009961631;6.181110231298677
0.0392049866347;0.4464012626645338;5.956543167786911
0.0400960090583;0.423727427602879;5.728198730349734
0.0409870314818;0.40078488351126845;5.496221724841773
0.0418780539053;0.37758817952758156;5.260759260730246
0.0427690763288;0.3541520259665621;5.021960657804716
0.0436600987523;0.3304912849911928;4.779977351485144
0.0445511211758;0.3066209611877744;4.5349627967882915
0.0454421435994;0.28255619205068716;4.287072371013411
0.0463331660229;0.2583122383828663;4.0364632752088765
0.0472241884464;0.2339044746180822;3.7832944344823045
0.0481152108699;0.20934837907116027;3.5277263972173376
0.0490062332934;0.18465952412232445;3.269921233261023
0.0498972557169;0.15985356634188824;3.010042431146346
0.0507882781405;0.13494623656155638;2.748254794415096
0.051679300564;0.10995332989863303;2.4847243371068117
0.0525703229875;0.08489069573946394;2.219618178480092
0.053461345411;0.05977422768846139;1.9531044370330053
0.0543523678345;0.034619853489090295;1.6853521238898472
0.055243390258;0.009443524923203456;1.4165310356218226
0.0561344126816;-0.015738792304865912;1.1468116465696434
0.0570254351051;-0.040911128693042885;0.8763650007362938
0.0579164575286;-0.06605752106865546;0.6053626033185673
0.0588074799521;-0.09116202271156759;0.33397631194611005
0.0596985023756;-0.11620871346687649;0.06237822769699141
0.0605895247991;-0.14118170984076459;-0.20925941404112114
0.0614805472227;-0.16606517507310384;-0.48076435279497265
0.0623715696462;-0.1908433291804215;-0.7519644122456178
0.0632625920697;-0.21550045896286182;-1.0226876094149633
0.0641536144932;-0.2400209279687964;-1.2927622637296994
0.0650446369167;-0.2643891864107646;-1.5620171058934642
0.0659356593402;-0.2885897810264533;-1.8302813864981728
0.0668266817638;-0.3126073648784689;-2.0973849843057
0.0677177041873;-0.3364267070866787;-2.363158514131163
0.0686087266108;-0.3600327024869557;-2.6274334342594488
0.0694997490343;-0.38341038121020066;-2.890042153326862
0.0703907714578;-0.40654491817556393;-3.1508181366000745
0.0712817938813;-0.42942164249185133;-3.4095960115850352
0.0721728163049;-0.4520260467611475;-3.6662116728988163
0.0730638387284;-0.4743437962787628;-3.9205023863379482
0.0739548611519;-0.49636073812366077;-4.17230689207716
0.0748458835754;-0.5180629101336105;-4.4214655069331865
0.0757369059989;-0.539436549759368;-4.667820225628722
0.0766279284224;-0.5604681027922681;-4.911214820992295
0.077518950846;-0.5811442319597027;-5.151494943030602
0.0784099732695;-0.6014518253830199;-5.3885082168103535
0.079300995693;-0.621378004892496;-5.622104339087691
0.0801920181165;-0.6409101341940938;-5.852135173623769
0.08108304054;-0.6600358268828376;-6.078454845126168
0.0819740629635;-0.6787429542977179;-6.3009198317564845
0.0828650853871;-0.6970196532131488;-6.519389056145498
0.0837561078106;-0.7148543333620937;-6.733723974858112
0.0846471302341;-0.732235684786098;-6.943788666251453
0.0855381526576;-0.749152685007559;-7.149449916670293
0.0864291750811;-0.7655946060196892;-7.350577304925199
0.0873201975046;-0.7815510210897404;-7.547043284999864
0.0882112199282;-0.7970118113711716;-7.73872326693506
0.0891022423517;-0.8119671723205707;-7.925495695838064
0.0899932647752;-0.8264076199152578;-8.107242128967325
0.0908842871987;-0.8403239966676304;-8.28384731084359
0.0917753096222;-0.8537074774324318;-8.45519924633976
0.0926663320457;-0.8665495750032665;-8.62118927170323
0.0935573544693;-0.8788421454948057;-8.781712123465562
0.0944483768928;-0.8905773935072779;-8.936666005195915
0.0953393993163;-0.9017478770699624;-9.085952652055772
0.0962304217398;-0.9123465123605555;-9.229477393114124
0.0971214441633;-0.9223665781974153;-9.367149211383564
0.0980124665868;-0.9318017203018334;-9.498880801539181
0.0989034890104;-0.9406459553276372;-9.624588625283716
0.0997945114339;-0.9488936746555591;-9.744192964323808
0.100685533857;-0.9565396479499744;-9.857617970923801
0.101576556281;-0.9635790264757449;-9.964791716004969
0.102467578704;-0.9700073461730725;-10.065646234759749
0.103358601128;-0.9758205304884048;-10.160117569751975
0.104249623551;-0.9810148929596045;-10.248145811475842
0.105140645975;-0.9855871395537396;-10.329675136347838
0.106031668398;-0.9895343707560108;-10.40465384210756
0.106922690822;-0.9928540834084959;-10.473034380605
0.107813713246;-0.9955441722975399;-10.534773387953445
0.108704735669;-0.9976029314887879;-10.589831712028923
0.109595758093;-0.9990290554090123;-10.638174437298739
0.110486780516;-0.9998216396740497;-10.679770906963338
0.11137780294;-0.9999801816623203;-10.714594742397491
0.112268825363;-0.9995045808335686;-10.742623859878433
0.113159847787;-0.9983951387926212;-10.763840484590377
0.11405087021;-0.9966525590981226;-10.778231161896512
0.114941892634;-0.9942779468163697;-10.785786765871334
0.115832915057;-0.9912728078205283;-10.786502505087896
0.116723937481;-0.9876390478356748;-10.780377925656316
0.117614959904;-0.9833789712302713;-10.767416911511624
0.118505982328;-0.9784952795548371;-10.747627681950734
0.119397004751;-0.9729910698287468;-10.721022786420134
0.120288027175;-0.9668698325762378;-10.68761909655759
0.121179049598;-0.9601354496128763;-10.647437795492905
0.122070072022;-0.9527921915838825;-10.600504364414526
0.122961094445;-0.9448447152558788;-10.546848566410501
0.123852116869;-0.9362980605637746;-10.486504427594067
0.124743139292;-0.9271576474146666;-10.419510215525806
0.125634161716;-0.9174292722507733;-10.345908414946054
0.126525184139;-0.9071191043735918;-10.265745700832998
0.127416206563;-0.8962336820316007;-10.179072908803455
0.128307228986;-0.8847799082739957;-10.085945002875222
0.12919825141;-0.8727650465730827;-9.98642104061133
0.130089273833;-0.8601967162181079;-9.88056413566837
0.130980296257;-0.8470828874834467;-9.768441417772657
0.13187131868;-0.8334318765742075;-9.650123990149508
0.132762341104;-0.8192523403524683;-9.525686884432787
0.133653363528;-0.8045532708474796;-9.395209013083162
0.134544385951;-0.7893439895533219;-9.258773119345372
0.135435408375;-0.7736341415176282;-9.11646572477612
0.136326430798;-0.7574336892251273;-8.968377074375992
0.137217453222;-0.7407529062798784;-8.814601079360086
0.138108475645;-0.723602370890211;-8.655235257603708
0.138999498069;-0.7059929591604972;-8.490380671800908
0.139890520492;-0.6879358381940103;-8.320141865374993
0.140781542916;-0.669442459011248;-8.144626796181791
0.141672565339;-0.6505245492882045;-7.963946768047561
0.142563587763;-0.6311941059192013;-7.778216360185088
0.143454610186;-0.6114633874089954;-7.587553354532677
0.14434563261;-0.5913449060989778;-7.392078661062061
0.145236655033;-0.5708514202324072;-7.191916241102714
0.146127677457;-0.5499959258637032;-6.987193028731132
0.14701869988;-0.5287916486169235;-6.778038850274839
0.147909722304;-0.5072520352986692;-6.564586341982402
0.148800744727;-0.4853907453707148;-6.346970865911371
0.149691767151;-0.4632216422877893;-6.1253304240877435
0.150582789574;-0.440758784705991;-5.89980557099121
0.151473811998;-0.418016417567418;-5.670539324421812
0.152364834421;-0.39500896306665634;-5.437677074804386
0.153255856845;-0.3717510115048711;-5.201366492988475
0.154146879268;-0.34825731203728694;-4.961757436602043
0.155037901692;-0.3245427633199346;-4.719001855018491
0.155928924115;-0.3006224040615835;-4.473253692997097
0.156819946539;-0.2765114034868668;-4.224668793058138
0.157710968962;-0.2522250517166341;-3.973404796654516
0.158601991386;-0.22777875007164244;-3.7196210442026065
0.15949301381;-0.2031880013057207;-3.463478474035625
0.160384036233;-0.17846839977461731;-3.2051395203437427
0.161275058657;-0.15363562154675828;-2.9447680101655984
0.16216608108;-0.12870541446217773;-2.682529059496434
0.163057103504;-0.1036935881459475;-2.4185889685789745
0.163948125927;-0.078616003982412;-2.1531151164431632
0.164839148351;-0.053488565056609566;-1.88627585476189
0.165730170774;-0.02832720606924352;-1.6182404010898503
0.166621193198;-0.003147883231609593;-1.3491787315533612
0.167512215621;0.022033435853126785;-1.0792614730590275
0.168403238045;0.04720078231586844;-0.8086597950898081
0.169294260468;0.07233819614833167;-0.5375453011569578
0.170185282892;0.09742973632417237;-0.2660899199767265
0.171076305315;0.1224594909080701;0.005534203559123456
0.171967327739;0.14741158714637292;0.2771548175499851
0.172858350162;0.17227020153288614;0.5485996723208387
0.173749372586;0.19701956984343552;0.81969662965533
0.174640395009;0.22164399713283164;1.0902737719581084
0.175531417433;0.2461278676879099;1.3601595112773635
0.176422439856;0.27045565493031215;1.6291826981181718
0.17731346228;0.2946119312627562;1.897172729977937
0.178204484703;0.31858137785252677;2.1639596595348576
0.179095507127;0.3423487943459936;2.429374302420908
0.17998652955;0.3658991085080023;2.693248344511073
0.180877551974;0.38921738578001036;2.9554144486606178
0.181768574397;0.41228883875091926;3.215706360822861
0.182659596821;0.4350988365345878;3.4739590154800313
0.183550619244;0.4576329140480921;3.7300086403205164
0.184441641668;0.47987678118483257;3.9836928600959145
0.185332664091;0.5018163318766835;4.234850799592193
0.186223686515;0.5234376530394294;4.483323185649535
0.187114708939;0.5447270333958263;4.728952448166325
0.188005731362;0.5656709721706794;4.971582820023043
0.188896753786;0.5862561876524338;5.211060435862836
0.189787776209;0.6064696256158404;5.447233429666035
0.190678798633;0.6262984676003681;5.679952031056858
0.191569821056;0.6457301390390944;5.909068660281047
0.19246084348;0.6647523172329387;6.134438021794411
0.193351865903;0.6833529391651672;6.355917196402755
0.194242888327;0.701520209151217;6.573365731894835
0.19513391075;0.719242606318998;6.786645732110935
0.196024933174;0.7365088919149121;6.995621944390418
0.196915955597;0.7533081164309717;7.200161845342955
0.197806978021;0.7696296265484862;7.400135724888907
0.198698000444;0.7854630718939248;7.595416768515723
0.199589022868;0.80079841160266;7.785881137698014
0.200480045291;0.8156259206864356;7.971408048430425
0.201371067715;0.8299361962005216;8.151879847823471
0.202262090138;0.84372016320664;8.32718208871373
0.203153112562;0.8569690805278887;8.497203602241157
0.204044134985;0.8696745462920039;8.661836568347393
0.204935157409;0.8818285032594537;8.82097658415045
0.205826179832;0.8934232439329787;8.974522730152348
0.206717202256;0.9044514154453432;9.122377634237756
0.207608224679;0.9149060242221976;9.264447533423066
0.208499247103;0.9247804404170885;9.400642333316673
0.209390269526;0.9340684021158132;9.53087566525283
0.21028129195;0.9427640193074448;9.655064941062786
0.211172314373;0.9508617776195164;9.773131405448536
0.212063336797;0.9583565418149884;9.885000185925916
0.212954359221;0.9652435590487879;9.990600340305381
0.213845381644;0.9715184618818493;10.089864901680373
0.214736404068;0.9771772710507515;10.182730920894771
0.215627426491;0.9822163979911877;10.26913950646241
0.216518448915;0.9866326471136735;10.349035861913457
0.217409471338;0.9904232178300463;10.422369320543854
0.218300493762;0.9935857063294745;10.489093377545922
0.219191516185;0.9961181071028467;10.549165719499605
0.220082538609;0.9980188142145753;10.602548251205775
0.220973561032;0.9992866223210104;10.649207119844485
0.221864583456;0.9999207274348142;10.68911273644293
0.222755605879;0.9999207274348142;10.722239794639458
0.223646628303;0.9992866223210104;10.74856728673173
0.224537650726;0.9980188142145753;10.768078516998859
0.22542867315;0.9961181071028467;10.780761112289108
0.226319695573;0.9935857063294746;10.786607029866376
0.227210717997;0.9904232178300464;10.785612562510554
0.22810174042;0.9866326471136734;10.77777834086847
0.228992762844;0.9822163979911878;10.763109333053967
0.229883785267;0.9771772710507516;10.741614841497336
0.230774807691;0.9715184618818494;10.713308497046151
0.231665830114;0.965243559048788;10.678208250321171
0.232556852538;0.9583565418149885;10.636336360332866
0.233447874961;0.9508617776195165;10.587719380365751
0.234338897385;0.942764019307445;10.532388141139474
0.235229919808;0.9340684021158133;10.470377731257344
0.236120942232;0.9247804404170884;10.401727474954699
0.237011964655;0.9149060242221975;10.326480907161267
0.237902987079;0.9044514154453431;10.244685745893202
0.238794009502;0.8934232439329785;10.156393861992486
0.239685031926;0.8818285032594535;10.061661246232735
0.24057605435;0.8696745462920041;9.960547973812368
0.241467076773;0.856969080527889;9.853118166257575
0.242358099197;0.8437201632066403;9.739439950759321
0.24324912162;0.829936196200522;9.619585416970109
0.244140144044;0.8156259206864359;9.493630571287948
0.245031166467;0.8007984116026603;9.361655288656493
0.245922188891;0.7854630718939252;9.223743261911897
0.246813211314;0.7696296265484865;9.07998194870857
0.247704233738;0.7533081164309715;8.930462516057412
0.248595256161;0.7365088919149124;8.775279782511808
0.249486278585;0.7192426063189983;8.614532158037875
0.250377301008;0.7015202091512168;8.448321581607281
0.251268323432;0.6833529391651669;8.276753456552113
0.252159345855;0.6647523172329385;8.099936583722748
0.253050368279;0.6457301390390947;7.9179830924912515
0.253941390702;0.6262984676003679;7.731008369643872
0.254832413126;0.6064696256158407;7.539130986207965
0.255723435549;0.5862561876524335;7.342472622259472
0.256614457973;0.5656709721706805;7.141157989758901
0.257505480396;0.5447270333958266;6.93531475346449
0.25839650282;0.5234376530394306;6.725073449973014
0.259287525243;0.5018163318766832;6.510567404939179
0.260178547667;0.4798767811848322;6.291932648526573
0.26106957009;0.45763291404809253;6.069307829143317
0.261960592514;0.4350988365345875;5.842834125517407
0.262851614937;0.41228883875091893;5.61265515716757
0.263742637361;0.38921738578001;5.378916893326061
0.264633659784;0.3658991085080028;5.141767560371588
0.265524682208;0.3423487943459932;4.90135754783064
0.266415704632;0.3185813778525272;4.657839313007297
0.267306727055;0.2946119312627558;4.411367284301454
0.268197749479;0.27045565493031265;4.162097763277403
0.269088771902;0.2461278676879095;3.9101888255441555
0.269979794326;0.22164399713283298;3.655800220511123
0.270870816749;0.19701956984343513;3.399093270082005
0.271761839173;0.1722702015328875;3.140230766351819
0.272652861596;0.14741158714637342;2.8793768683712173
0.27354388402;0.12245949090807146;2.6166969980443198
0.274434906443;0.09742973632417286;2.352357735225369
0.275325928867;0.07233819614833129;2.0865267120813384
0.27621695129;0.04720078231586893;1.8193725067870739
0.277107973714;0.022033435853126386;1.5510645366204219
0.277998996137;-0.0031478832316091027;1.2817729505255202
0.278890018561;-0.02832720606924481;1.0116685212117593
0.279781040984;-0.05348856505660907;0.7409225368575386
0.280672063408;-0.0786160039824124;0.46970669248673613
0.281563085831;-0.103693588145947;0.19819298108757558
0.282454108255;-0.12870541446217812;-0.07344641545781568
0.283345130678;-0.15363562154675692;-0.34503923556332156
0.284236153102;-0.17846839977461684;-0.6164132471796027
0.285127175525;-0.2031880013057202;-0.8873963570158441
0.286018197949;-0.22777875007164283;-1.1578167196737184
0.286909220372;-0.2522250517166336;-1.427502846624033
0.287800242796;-0.27651140348686637;-1.6962837149571894
0.288691265219;-0.3006224040615822;-1.9639888758381117
0.289582287643;-0.3245427633199341;-2.230448562597502
0.290473310066;-0.34825731203728727;-2.4954937983901164
0.29136433249;-0.37175101150486983;-2.7589565033524086
0.292255354914;-0.39500896306665584;-3.0206696011913365
0.293146377337;-0.41801641756741836;-3.280467125136581
0.294037399761;-0.44075878470599217;-3.538184323189341
0.294928422184;-0.46322164228778884;-3.793657762600665
0.295819444608;-0.48539074537071514;-4.046725433513281
0.296710467031;-0.5072520352986689;-4.2972268517008905
0.297601489455;-0.5287916486169238;-4.545003160340256
0.298492511878;-0.549995925863702;-4.7898972307509595
0.299383534302;-0.5708514202324068;-5.031753762039549
0.300274556725;-0.5913449060989774;-5.270419379584308
0.301165579149;-0.6114633874089958;-5.505742732298677
0.302056601572;-0.6311941059192009;-5.737574588611314
0.302947623996;-0.6505245492882041;-5.9657679311021745
0.303838646419;-0.669442459011247;-6.190178049734279
0.304729668843;-0.6879358381940099;-6.410662633622499
0.305620691266;-0.7059929591604972;-6.627081861280651
0.30651171369;-0.7236023708902104;-6.839298489290098
0.307402736113;-0.7407529062798781;-7.047177939333448
0.308293758537;-0.7574336892251275;-7.250588383538024
0.30918478096;-0.773634141517629;-7.449400828075285
0.310075803384;-0.7893439895533219;-7.64348919496292
0.310966825807;-0.8045532708474801;-7.832730402017945
0.311857848231;-0.8192523403524681;-8.01700444090983
0.312748870654;-0.8334318765742077;-8.196194453264534
0.313639893078;-0.8470828874834463;-8.37018680477077
0.314530915501;-0.8601967162181079;-8.538871157241921
0.315421937925;-0.8727650465730825;-8.7021405385875
0.316312960348;-0.8847799082739959;-8.859891410650135
0.317203982772;-0.8962336820316005;-9.01202373486482
0.318095005195;-0.9071191043735918;-9.158441035698953
0.318986027619;-0.9174292722507729;-9.299050461832742
0.319877050043;-0.9271576474146663;-9.433762845041453
0.320768072466;-0.9362980605637747;-9.56249275674185
0.32165909489;-0.9448447152558784;-9.685158562167215
0.322550117313;-0.9527921915838825;-9.801682472136509
0.323441139737;-0.9601354496128764;-9.911990592384745
0.32433216216;-0.9668698325762382;-10.016012970423466
