Mesure26
temps(s);entree;sortie
0.0;1.0;-6.504454759989538
0.000237105570579;0.9996829223075361;-5.959063667803206
0.000474211141158;0.9987318903066703;-5.409893603302809
0.000711316711737;0.9971475070994674;-4.85729282564199
0.000948422282316;0.99493077743107;-4.301611769579614
0.0011855278529;0.992083107052534;-3.7432028232496934
0.00142263342347;0.9886063018293647;-3.1824201046925333
0.00165973899405;0.9845025665963167;-2.6196192372888785
0.00189684456463;0.9797745037591863;-2.055157124239437
0.00213395013521;0.9744251116444819;-1.4893917222327804
0.00237105570579;0.9684577825980192;-0.9226818144452081
0.00260816127637;0.9618763008336466;-0.3553867830164304
0.00284526684695;0.9546848400334659;0.2121336188545294
0.00308237241753;0.946887960701069;0.7795194950487683
0.00331947798811;0.93849060726947;1.3464110347575657
0.00355658355869;0.9294981049655667;1.9124487406583455
0.00379368912926;0.9199161564331194;2.477273656891843
0.00403079469984;0.9097508381163878;3.0405275966958727
0.00426790027042;0.899008596406722;3.6018533695514456
0.004505005841;0.8876962435545485;4.1608950076969915
0.00474211141158;0.8758209533493445;4.717297991867287
0.00497921698216;0.8633902565703413;5.270709476113735
0.00521632255274;0.8504120362108398;5.820778511563506
0.00545342812332;0.8368945224791677;6.367156268975706
0.0056905336939;0.8228462875794489;6.909496259953246
0.00592763926448;0.8082762402754935;7.44745455667041
0.00616474483506;0.7931936202412581;7.98069000997645
0.00640185040563;0.7776079922014563;8.508864465737222
0.00663895597621;0.761529239866037;9.031642979277425
0.00687606154679;0.7449675596623765;9.548694027787574
0.00711316711737;0.7279334542691596;10.059689720560977
0.00735027268795;0.7104377259560487;10.564306006927378
0.00758737825853;0.6924914697333668;11.06222288175146
0.00782448382911;0.6741060663161369;11.55312458836581
0.00806158939969;0.6552931749069402;12.036699818809696
0.00829869497027;0.6360647258021696;12.51264191124673
0.00853580054085;0.6164329128263688;12.980649044436072
0.00877290611142;0.5964101855994526;13.440424429134024
0.009010011682;0.5760092416417124;13.891676496304525
0.00924711725258;0.555243018321617;14.334119082019217
0.00948422282316;0.5341246846515092;14.767471608929853
0.00972132839374;0.512667632936407;15.191459264197912
0.00995843396432;0.49088547028119967;15.605813173768668
0.0101955395349;0.4687920099616308;16.0102705728791
0.0104326451055;0.44640126266453356;16.404574972691588
0.0106697506761;0.423727427602879;16.78847632294769
0.0109068562466;0.40078488351126845;17.16173117053886
0.0111439618172;0.37758817952758156;17.52410281389355
0.0113810673878;0.3541520259665621;17.875361453082775
0.0116181729584;0.33049128499119257;18.215284335549
0.011855278529;0.3066209611877746;18.543655897365834
0.0120923840995;0.28255619205068716;18.860267899939114
0.0123294896701;0.2583122383828663;19.16491956206246
0.0125665952407;0.2339044746180822;19.45741768724382
0.0128037008113;0.20934837907116027;19.737576786222014
0.0130408063818;0.18465952412232423;20.005219194595806
0.0132779119524;0.15985356634188824;20.260175185490674
0.013515017523;0.13494623656155616;20.502283077192086
0.0137521230936;0.10995332989863303;20.731389335676777
0.0139892286642;0.08489069573946394;20.947348671977213
0.0142263342347;0.05977422768846139;21.150024134317352
0.0144634398053;0.034619853489090295;21.339287194961358
0.0147005453759;0.009443524923203456;21.51501783172016
0.0149376509465;-0.01573879230486569;21.677104604064155
0.0151747565171;-0.040911128693042885;21.825444723793836
0.0154118620876;-0.06605752106865569;21.95994412022348
0.0156489676582;-0.09116202271156804;22.080517499836564
0.0158860732288;-0.11620871346687649;22.18708840037513
0.0161231787994;-0.14118170984076459;22.279589239328732
0.01636028437;-0.16606517507310406;22.35796135679223
0.0165973899405;-0.1908433291804217;22.422155052665314
0.0168344955111;-0.21550045896286182;22.472129618170054
0.0170716010817;-0.24002092796879682;22.507853361666637
0.0173087066523;-0.2643891864107644;22.52930362875075
0.0175458122228;-0.2885897810264531;22.536466816620017
0.0177829177934;-0.3126073648784689;22.529338382700274
0.018020023364;-0.3364267070866787;22.50792284752628
0.0182571289346;-0.3600327024869557;22.472233791874984
0.0184942345052;-0.3834103812102009;22.422293848153213
0.0187313400757;-0.40654491817556415;22.3581346860452
0.0189684456463;-0.4294216424918517;22.279796992429088
0.0192055512169;-0.4520260467611479;22.187330445575125
0.0194426567875;-0.4743437962787628;22.08079368364193
0.0196797623581;-0.49636073812366077;21.960254267490768
0.0199168679286;-0.5180629101336108;21.825788637841487
0.0201539734992;-0.539436549759368;21.67748206679723
0.0203910790698;-0.5604681027922686;21.515428603768626
0.0206281846404;-0.5811442319597027;21.339731015831916
0.020865290211;-0.6014518253830202;21.1505007225586
0.0211023957815;-0.6213780048924964;20.947857725358155
0.0213395013521;-0.6409101341940938;20.73193053137847
0.0215766069227;-0.6600358268828372;20.502856072012364
0.0218137124933;-0.6787429542977179;20.260779616061782
0.0220508180639;-0.6970196532131488;20.00585467761484
0.0222879236344;-0.7148543333620937;19.738242918694006
0.022525029205;-0.7322356847860982;19.458114046737265
0.0227621347756;-0.749152685007559;19.165645706977244
0.0229992403462;-0.7655946060196894;18.861023369786523
0.0232363459167;-0.7815510210897406;18.5444402130606
0.0234734514873;-0.7970118113711716;18.216096999713095
0.0237105570579;-0.8119671723205705;17.876201950360855
0.0239476626285;-0.826407619915258;17.52497061127972
0.0241847681991;-0.8403239966676304;17.162625717714754
0.0244218737696;-0.8537074774324318;16.789397052631394
0.0246589793402;-0.8665495750032665;16.405521300997414
0.0248960849108;-0.8788421454948059;16.011241899687853
0.0251331904814;-0.8905773935072779;15.60680888310823
0.025370296052;-0.9017478770699624;15.192478724633833
0.0256074016225;-0.9123465123605555;14.768514173965817
0.0258445071931;-0.9223665781974153;14.33518409050699
0.0260816127637;-0.9318017203018335;13.892763272863235
0.0263187183343;-0.9406459553276372;13.441532284578471
0.0265558239049;-0.9488936746555591;12.981777276213762
0.0267929294754;-0.9565396479499744;12.513789803883396
0.027030035046;-0.963579026475745;12.037866644363044
0.0272671406166;-0.9700073461730726;11.554309606887125
0.0275042461872;-0.9758205304884048;11.063425341754881
0.0277413517577;-0.9810148929596045;10.565525145866417
0.0279784573283;-0.9855871395537396;10.060924765312102
0.0282155628989;-0.9895343707560108;9.549944195140508
0.0284526684695;-0.9928540834084959;9.032907476431816
0.0286897740401;-0.99554417229754;8.51014249080538
0.0289268796106;-0.9976029314887879;7.9819807524919035
0.0291639851812;-0.9990290554090123;7.448757198101836
0.0294010907518;-0.9998216396740497;6.910809974223571
0.0296381963224;-0.9999801816623203;6.368480222985949
0.029875301893;-0.9995045808335686;5.822111865721112
0.0301124074635;-0.9983951387926212;5.272051384864957
0.0303495130341;-0.9966525590981226;4.7186476042334915
0.0305866186047;-0.9942779468163697;4.162251467814225
0.0308237241753;-0.9912728078205282;3.6032158172132105
0.0310608297459;-0.9876390478356747;3.041895167898653
0.0312979353164;-0.9833789712302711;2.478645484382986
0.031535040887;-0.9784952795548372;1.9138239544860902
0.0317721464576;-0.9729910698287468;1.3477887628226333
0.0320092520282;-0.9668698325762378;0.780898863657487
0.0322463575987;-0.9601354496128763;0.21351375327287817
0.0324834631693;-0.9527921915838825;-0.35400675800813475
0.0327205687399;-0.9448447152558785;-0.921302773997256
0.0329576743105;-0.9362980605637746;-1.4880145408710879
0.0331947798811;-0.9271576474146664;-2.0537826753109854
0.0334318854516;-0.9174292722507731;-2.6182483924078626
0.0336689910222;-0.9071191043735918;-3.1810537331875954
0.0339060965928;-0.8962336820316007;-3.741841791612703
0.0341432021634;-0.8847799082739953;-4.30025694091612
0.034380307734;-0.8727650465730825;-4.855945059123853
0.0346174133045;-0.8601967162181081;-5.408553753623448
0.0348545188751;-0.8470828874834467;-5.957732584635509
0.0350916244457;-0.8334318765742077;-6.5031332874470555
0.0353287300163;-0.8192523403524683;-7.0444099932654725
0.0355658355869;-0.8045532708474796;-7.5812194485530195
0.0358029411574;-0.7893439895533222;-8.113221232702928
0.036040046728;-0.7736341415176282;-8.640077973919034
0.0362771522986;-0.757433689225127;-9.161455563161775
0.0365142578692;-0.7407529062798784;-9.677023366025335
0.0367513634398;-0.723602370890211;-10.186454432411288
0.0369884690103;-0.7059929591604969;-10.689425703865588
0.0372255745809;-0.6879358381940103;-11.185618218447996
0.0374626801515;-0.6694424590112477;-11.674717313003441
0.0376997857221;-0.6505245492882038;-12.15641282270732
0.0379368912926;-0.6311941059192006;-12.630399277758288
0.0381739968632;-0.6114633874089954;-13.096376097093446
0.0384111024338;-0.5913449060989772;-13.554047779003621
0.0386482080044;-0.5708514202324072;-14.003124088527153
0.038885313575;-0.5499959258637032;-14.443320241504136
0.0391224191455;-0.5287916486169235;-14.874357085173743
0.0393595247161;-0.5072520352986692;-15.295961275200433
0.0395966302867;-0.4853907453707148;-15.707865449016808
0.0398337358573;-0.4632216422877885;-16.109808395372976
0.0400708414279;-0.440758784705991;-16.50153521998505
0.0403079469984;-0.418016417567418;-16.882797507177795
0.040545052569;-0.39500896306665634;-17.253353477418713
0.0407821581396;-0.37175101150487033;-17.612968140643876
0.0410192637102;-0.34825731203728694;-17.961413445278072
0.0412563692808;-0.3245427633199346;-18.298468422855027
0.0414934748513;-0.30062240406158264;-18.62391932814571
0.0417305804219;-0.276511403486866;-18.937559774705978
0.0419676859925;-0.2522250517166341;-19.239190865757717
0.0422047915631;-0.22777875007164158;-19.52862132032029
0.0424418971336;-0.2031880013057207;-19.805667594512347
0.0426790027042;-0.17846839977461731;-20.07015399794727
0.0429161082748;-0.1536356215467574;-20.321912805148063
0.0431532138454;-0.1287054144621786;-20.56078436191142
0.043390319416;-0.1036935881459475;-20.786617186553343
0.0436274249865;-0.078616003982412;-20.999268065971975
0.0438645305571;-0.053488565056609566;-21.198602146467024
0.0441016361277;-0.02832720606924352;-21.384493019257953
0.0443387416983;-0.003147883231609593;-21.55682280064676
0.0445758472689;0.022033435853126785;-21.715482206774603
0.0448129528394;0.04720078231586933;-21.860370622924712
0.04505005841;0.07233819614833256;-21.99139616732778
0.0452871639806;0.09742973632417237;-22.108475749429243
0.0455242695512;0.1224594909080701;-22.211535122581665
0.0457613751218;0.1474115871463738;-22.300508931128586
0.0459984806923;0.17227020153288702;-22.3753407518502
0.0462355862629;0.19701956984343552;-22.43598312974443
0.0464726918335;0.2216439971328325;-22.48239760812078
0.0467097974041;0.2461278676879099;-22.51455475298785
0.0469469029747;0.27045565493031215;-22.532434171719057
0.0471840085452;0.29461193126275703;-22.53602452598474
0.0474211141158;0.31858137785252594;-22.5253235389424
0.0476582196864;0.3423487943459936;-22.500337996680596
0.047895325257;0.3658991085080031;-22.4610837439155
0.0481324308275;0.38921738578001036;-22.407585673942883
0.0483695363981;0.41228883875091926;-22.3398777128519
0.0486066419687;0.4350988365345878;-22.258002798010686
0.0488437475393;0.4576329140480921;-22.16201285083737
0.0490808531099;0.47987678118483335;-22.051968743873854
0.0493179586804;0.5018163318766835;-21.92794026218315
0.049555064251;0.5234376530394294;-21.790006059094804
0.0497921698216;0.544727033395827;-21.63825360632647
0.0500292753922;0.5656709721706801;-21.47277913851325
0.0502663809628;0.5862561876524338;-21.293687592179978
0.0505034865333;0.6064696256158404;-21.10109253919515
0.0507405921039;0.6262984676003681;-20.895116114748724
0.0509776976745;0.6457301390390944;-20.675888939899444
0.0512148032451;0.6647523172329387;-20.443550038740753
0.0514519088157;0.6833529391651672;-20.198246750237946
0.0516890143862;0.701520209151217;-19.94013463479238
0.0519261199568;0.719242606318998;-19.669377375591974
0.0521632255274;0.7365088919149128;-19.38614667481065
0.052400331098;0.7533081164309712;-19.09062214472251
0.0526374366685;0.7696296265484862;-18.78299119379965
0.0528745422391;0.7854630718939248;-18.463448907866198
0.0531116478097;0.80079841160266;-18.132197926383487
0.0533487533803;0.8156259206864361;-17.789448313945165
0.0535858589509;0.8299361962005216;-17.43541742706367
0.0538229645214;0.8437201632066406;-17.070329776332326
0.054060070092;0.8569690805278891;-16.694416884050835
0.0542971756626;0.8696745462920044;-16.307917137404097
0.0545342812332;0.8818285032594542;-15.9110756372877
0.0547713868038;0.8934232439329782;-15.50414404287595
0.0550084923743;0.9044514154453432;-15.087380412030683
0.0552455979449;0.914906024222198;-14.661049037652672
0.0554827035155;0.9247804404170885;-14.225420280078772
0.0557198090861;0.9340684021158132;-13.780770395631366
0.0559569146567;0.9427640193074448;-13.327381361429133
0.0561940202272;0.9508617776195164;-12.865540696569559
0.0564311257978;0.9583565418149886;-12.395541279797232
0.0566682313684;0.9652435590487879;-11.917681163773238
0.056905336939;0.9715184618818493;-11.432263386063388
0.0571424425095;0.9771772710507517;-10.939595776965334
0.0573795480801;0.9822163979911879;-10.4399907642964
0.0576166536507;0.9866326471136735;-9.93376517526569
0.0578537592213;0.9904232178300463;-9.421240035556474
0.0580908647919;0.9935857063294746;-8.902740365745997
0.0583279703624;0.9961181071028467;-8.378594975191984
0.058565075933;0.9980188142145753;-7.849136253516321
0.0588021815036;0.9992866223210104;-7.314699959818441
0.0590392870742;0.9999207274348142;-6.775625009751929
0.0592763926448;0.9999207274348142;-6.23225326059923
0.0595134982153;0.9992866223210104;-5.68492929448107
0.0597506037859;0.9980188142145754;-5.134000199837918
0.0599877093565;0.9961181071028467;-4.579815351321779
0.0602248149271;0.9935857063294745;-4.022726188238623
0.0604619204977;0.9904232178300464;-3.4630859916811456
0.0606990260682;0.9866326471136734;-2.9012496604935354
0.0609361316388;0.9822163979911878;-2.3375734862107227
0.0611732372094;0.9771772710507516;-1.7724149271139649
0.06141034278;0.9715184618818492;-1.206132381546831
0.0616474483506;0.9652435590487878;-0.6390849606350234
0.0618845539211;0.9583565418149885;-0.0716322605540027
0.0621216594917;0.9508617776195163;0.495865865510803
0.0623587650623;0.9427640193074447;1.0630495355667728
0.0625958706329;0.9340684021158128;1.6295590670353384
0.0628329762034;0.9247804404170884;2.195035204846465
0.063070081774;0.9149060242221978;2.759119349262312
0.0633071873446;0.9044514154453431;3.3214537832852056
0.0635442929152;0.8934232439329785;3.88168189950562
0.0637813984858;0.8818285032594535;4.439448426246905
0.0640185040563;0.8696745462920041;4.9943996528625565
0.0642556096269;0.8569690805278884;5.546183654043882
0.0644927151975;0.8437201632066403;6.0944505129951585
0.0647298207681;0.829936196200522;6.638852543335462
0.0649669263387;0.8156259206864359;7.179044509585686
0.0652040319092;0.8007984116026597;7.714683846101519
0.0654411374798;0.7854630718939246;8.24543087431331
0.0656782430504;0.7696296265484853;8.770949018135125
0.065915348621;0.7533081164309715;9.290905017406125
0.0661524541916;0.7365088919149124;9.804969139229499
0.0663895597621;0.7192426063189977;10.3128153870742
0.0666266653327;0.7015202091512168;10.8141217075074
0.0668637709033;0.6833529391651663;11.308570194426538
0.0671008764739;0.6647523172329385;11.795847290661028
0.0673379820444;0.6457301390390947;12.27564398681634
0.067575087615;0.6262984676003679;12.747656017233988
0.0678121931856;0.6064696256158407;13.211584052943085
0.0680492987562;0.5862561876524335;13.667133891481594
0.0682864043268;0.5656709721706791;14.114016643466288
0.0685235098973;0.544727033395826;14.55194891579355
0.0687606154679;0.5234376530394298;14.980652991354654
0.0689977210385;0.5018163318766832;15.399857005151583
0.0692348266091;0.47987678118483296;15.80929511670156
0.0694719321797;0.45763291404809175;16.20870767862138
0.0697090377502;0.4350988365345875;16.597841401284068
0.0699461433208;0.4122888387509181;16.976449513443963
0.0701832488914;0.3892173857800108;17.344291918727926
0.070420354462;0.3658991085080028;17.70113534789388
0.0706574600326;0.3423487943459932;18.046753506759643
0.0708945656031;0.3185813778525264;18.380927219708614
0.0711316711737;0.2946119312627558;18.70344456868125
0.0713687767443;0.27045565493031176;19.014101027563946
0.0716058823149;0.24612786768791037;19.31269959189044
0.0718429878854;0.22164399713283212;19.59905090377326
0.072080093456;0.19701956984343513;19.872973371985978
0.0723171990266;0.1722702015328866;20.13429328712031
0.0725543045972;0.14741158714637254;20.38284493174491
0.0727914101678;0.12245949090806969;20.618470685495883
0.0730285157383;0.09742973632417286;20.84102112503266
0.0732656213089;0.07233819614833217;21.050355118795622
0.0735027268795;0.04720078231586893;21.24633991650534
0.0737398324501;0.022033435853126386;21.428851233347014
0.0739769380207;-0.003147883231609991;21.597773328786232
0.0742140435912;-0.02832720606924481;21.75299907996655
0.0744511491618;-0.05348856505660907;21.89443004964197
0.0746882547324;-0.07861600398241152;22.021976548601483
0.074925360303;-0.10369358814594788;22.135557692545955
0.0751624658736;-0.12870541446217812;22.235101453381308
0.0753995714441;-0.15363562154675867;22.320544704895585
0.0756366770147;-0.1784683997746186;22.39183326279073
0.0758737825853;-0.20318800130572195;22.448921919043865
0.0761108881559;-0.22777875007164283;22.491774470576207
0.0763479937265;-0.2522250517166336;22.520363742211455
0.076585099297;-0.27651140348686637;22.534671603909043
0.0768222048676;-0.30062240406158386;22.534688982261432
0.0770593104382;-0.32454276331993576;22.520415866248044
0.0772964160088;-0.34825731203728727;22.49186130724226
0.0775335215793;-0.37175101150486983;22.449043413271436
0.0777706271499;-0.39500896306665584;22.39198933753361
0.0780077327205;-0.41801641756741836;22.32073526117813
0.0782448382911;-0.44075878470599217;22.235326370361225
0.0784819438617;-0.4632216422877904;22.135816827590926
0.0787190494322;-0.48539074537071514;22.02226973737964
0.0789561550028;-0.5072520352986689;21.894757106226063
0.0791932605734;-0.5287916486169238;21.753359796951873
0.079430366144;-0.5499959258637035;21.598167477422173
0.0796674717146;-0.5708514202324082;21.42927856368209
0.0799045772851;-0.5913449060989774;21.24680015754574
0.0801416828557;-0.6114633874089958;21.050847978676984
0.0803787884263;-0.6311941059192009;20.841546291205262
0.0806158939969;-0.6505245492882041;20.619027824922735
0.0808529995675;-0.6694424590112483;20.38343369111306
0.081090105138;-0.6879358381940099;20.13491329306485
0.0813272107086;-0.7059929591604972;19.87362423132678
0.0815643162792;-0.7236023708902116;19.599732203764376
0.0818014218498;-0.7407529062798781;19.313410900481827
0.0820385274203;-0.7574336892251275;19.014841893675396
0.0822756329909;-0.773634141517629;18.704214522488535
0.0825127385615;-0.7893439895533219;18.381725772941415
0.0827498441321;-0.8045532708474801;18.047580153011094
0.0829869497027;-0.8192523403524691;17.70198956294182
0.0832240552732;-0.8334318765742077;17.345173160867297
0.0834611608438;-0.8470828874834472;16.97735722383028
0.0836982664144;-0.8601967162181079;16.598775004287948
0.083935371985;-0.8727650465730825;16.209666582193414
0.0841724775556;-0.8847799082739959;15.810278712747897
0.0844095831261;-0.8962336820316013;15.400864669919478
0.0846466886967;-0.9071191043735918;14.981684085828112
0.0848837942673;-0.9174292722507729;14.553002786098432
