Mesure44
temps(s);entree;sortie
0.0;1.0;-3.112033195020747
0.000125915537218;0.9996829223075361;-3.0901498032640013
0.000251831074436;0.9987318903066703;-3.066306776369282
0.000377746611654;0.9971475070994674;-3.0405192345204872
0.000503662148872;0.99493077743107;-3.0128035310261447
0.00062957768609;0.992083107052534;-2.983177241948872
0.000755493223308;0.9886063018293647;-2.9516591549594224
0.000881408760526;0.9845025665963166;-2.9182692574223843
0.00100732429774;0.9797745037591863;-2.8830287237210817
0.00113323983496;0.9744251116444819;-2.84595990182973
0.00125915537218;0.9684577825980192;-2.807086299141344
0.0013850709094;0.9618763008336467;-2.766432567560401
0.00151098644662;0.9546848400334659;-2.7240244878696984
0.00163690198383;0.946887960701069;-2.679888953381338
0.00176281752105;0.93849060726947;-2.6340539528821827
0.00188873305827;0.9294981049655667;-2.5865485528846155
0.00201464859549;0.9199161564331194;-2.53740287919386
0.00214056413271;0.9097508381163878;-2.4866480978035312
0.00226647966992;0.899008596406722;-2.434316395131561
0.00239239520714;0.8876962435545485;-2.380440957608999
0.00251831074436;0.8758209533493445;-2.3250559506346655
0.00264422628158;0.8633902565703414;-2.26819649690898
0.0027701418188;0.8504120362108399;-2.2098986541607046
0.00289605735601;0.8368945224791677;-2.150199392280747
0.00302197289323;0.8228462875794488;-2.089136569877507
0.00314788843045;0.8082762402754934;-2.0267489102686294
0.00327380396767;0.7931936202412581;-1.9630759769244075
0.00339971950489;0.7776079922014563;-1.8981581483783965
0.0035256350421;0.7615292398660369;-1.8320365926211475
0.00365155057932;0.7449675596623765;-1.7647532409933018
0.00377746611654;0.7279334542691596;-1.6963507615946123
0.00390338165376;0.7104377259560488;-1.62687253222573
0.00402929719098;0.6924914697333668;-1.5563626128799466
0.00415521272819;0.674106066316137;-1.4848657178023037
0.00428112826541;0.6552931749069402;-1.4124271871338216
0.00440704380263;0.6360647258021697;-1.3390929581588014
0.00453295933985;0.6164329128263689;-1.2649095361734441
0.00465887487707;0.5964101855994526;-1.1899239649942774
0.00478479041429;0.5760092416417125;-1.1141837971250534
0.0049107059515;0.5552430183216172;-1.0377370636010845
0.00503662148872;0.5341246846515094;-0.9606322435300924
0.00516253702594;0.512667632936407;-0.8829182333489309
0.00528845256316;0.4908854702811999;-0.8046443158156402
0.00541436810038;0.468792009961631;-0.7258601287565234
0.00554028363759;0.4464012626645338;-0.6466156335880512
0.00566619917481;0.42372742760287924;-0.5669610836335606
0.00579211471203;0.40078488351126845;-0.4869469922548384
0.00591803024925;0.37758817952758156;-0.4066241008188042
0.00604394578647;0.35415202596656187;-0.3260433465195935
0.00616986132368;0.33049128499119257;-0.24525583007646815
0.0062957768609;0.3066209611877744;-0.16431278332801488
0.00642169239812;0.28255619205068716;-0.0832655367432017
0.00654760793534;0.2583122383828663;-0.0021654868698838623
0.00667352347256;0.2339044746180822;0.07893593625859349
0.00679943900977;0.20934837907116027;0.15998730173802814
0.00692535454699;0.18465952412232445;0.24093721040854552
0.00705127008421;0.15985356634188802;0.3217343274496535
0.00717718562143;0.13494623656155616;0.4023274149344925
0.00730310115865;0.10995332989863303;0.4826653643226466
0.00742901669586;0.08489069573946394;0.5626972288708972
0.00755493223308;0.05977422768846139;0.6423722559413756
0.0076808477703;0.034619853489090295;0.7216399191866203
0.00780676330752;0.009443524923203678;0.8004499505911339
0.00793267884474;-0.01573879230486569;0.878752372349115
0.00805859438195;-0.040911128693042885;0.9564975285581531
0.00818450991917;-0.06605752106865569;1.0336361167087853
0.00831042545639;-0.09116202271156781;1.1101192189499507
0.00843634099361;-0.11620871346687649;1.185898333110507
0.00856225653083;-0.14118170984076459;1.2609254034571442
0.00868817206804;-0.16606517507310384;1.3351528511691868
0.00881408760526;-0.1908433291804215;1.4085336045109587
0.00894000314248;-0.21550045896286182;1.4810211286825778
0.0090659186797;-0.24002092796879662;1.5525694553302516
0.00919183421692;-0.2643891864107644;1.6231332116973525
0.00931774975413;-0.2885897810264531;1.6926676493978003
0.00944366529135;-0.3126073648784687;1.7611286727934892
0.00956958082857;-0.3364267070866785;1.828472866957775
0.00969549636579;-0.3600327024869557;1.8946575252072853
0.00982141190301;-0.38341038121020066;1.959640676184591
0.00994732744022;-0.40654491817556393;2.0233811104745705
0.0100732429774;-0.42942164249185133;2.0858384067375817
0.0101991585147;-0.4520260467611475;2.1469729573428697
0.0103250740519;-0.4743437962787628;2.2067459934859652
0.0104509895891;-0.4963607381236604;2.2651196097741226
0.0105769051263;-0.5180629101336105;2.322056788264237
0.0107028206635;-0.539436549759368;2.3775214219379652
0.0108287362008;-0.5604681027922681;2.4314783375991893
0.010954651738;-0.5811442319597027;2.4838933181792897
0.0110805672752;-0.6014518253830199;2.53473312443608
0.0112064828124;-0.621378004892496;2.5839655160326545
0.0113323983496;-0.6409101341940935;2.631559271982768
0.0114583138868;-0.6600358268828372;2.6774842104497973
0.0115842294241;-0.6787429542977179;2.721711207886711
0.0117101449613;-0.6970196532131485;2.7642122175049235
0.0118360604985;-0.7148543333620937;2.8049602870603225
0.0119619760357;-0.732235684786098;2.843929575945173
0.0120878915729;-0.7491526850075594;2.8810953715750833
0.0122138071101;-0.7655946060196894;2.9164341050606173
0.0123397226474;-0.7815510210897406;2.9499233661536395
0.0124656381846;-0.7970118113711716;2.981541917458891
0.0125915537218;-0.8119671723205707;3.011269707901798
0.012717469259;-0.8264076199152578;3.0390878854439682
0.0128433847962;-0.8403239966676304;3.0649788090383154
0.0129693003335;-0.853707477432432;3.0889260598162216
0.0130952158707;-0.8665495750032665;3.1109144514996503
0.0132211314079;-0.8788421454948059;3.1309300400316107
0.0133470469451;-0.8905773935072779;3.1489601324188525
0.0134729624823;-0.9017478770699624;3.1649932947811976
0.0135988780195;-0.9123465123605555;3.1790193596023966
0.0137247935568;-0.9223665781974153;3.191029432177914
0.013850709094;-0.9318017203018334;3.2010158962555515
0.0139766246312;-0.9406459553276372;3.2089724188653395
0.0141025401684;-0.9488936746555592;3.2148939543356185
0.0142284557056;-0.9565396479499744;3.2187767474927838
0.0143543712429;-0.963579026475745;3.2206183360426457
0.0144802867801;-0.9700073461730725;3.2204175521319085
0.0146062023173;-0.9758205304884048;3.218174523088771
0.0147321178545;-0.9810148929596045;3.2138906713421784
0.0148580333917;-0.9855871395537396;3.2075687135197843
0.0149839489289;-0.9895343707560108;3.199212658725186
0.0151098644662;-0.9928540834084959;3.1888278059955275
0.0152357800034;-0.99554417229754;3.176420740941089
0.0153616955406;-0.9976029314887879;3.1619993315689863
0.0154876110778;-0.9990290554090123;3.1455727232936304
0.015613526615;-0.9998216396740497;3.127151333137116
0.0157394421523;-0.9999801816623203;3.1067468431232075
0.0158653576895;-0.9995045808335686;3.0843721928691252
0.0159912732267;-0.9983951387926212;3.0600415713798133
0.0161171887639;-0.9966525590981226;3.033770408049907
0.0162431043011;-0.9942779468163697;3.0055753628791013
0.0163690198383;-0.9912728078205282;2.975474315907119
0.0164949353756;-0.9876390478356748;2.9434863558749895
0.0166208509128;-0.9833789712302712;2.9096317681198203
0.01674676645;-0.9784952795548372;2.8739320217107407
0.0168726819872;-0.9729910698287468;2.8364097558341763
0.0169985975244;-0.9668698325762378;2.797088765437087
0.0171245130617;-0.9601354496128763;2.755993986137276
0.0172504285989;-0.9527921915838825;2.7131514784103254
0.0173763441361;-0.9448447152558788;2.6685884110632174
0.0175022596733;-0.9362980605637746;2.6223330440050763
0.0176281752105;-0.9271576474146666;2.574414710326006
0.0177540907477;-0.9174292722507733;2.524863797695344
0.017880006285;-0.9071191043735918;2.4737117290911645
0.0180059218222;-0.8962336820316007;2.420990942873222
0.0181318373594;-0.8847799082739954;2.3667348722119943
0.0182577528966;-0.8727650465730825;2.3109779238868584
0.0183836684338;-0.8601967162181081;2.253755456466839
0.0185095839711;-0.847082887483447;2.195103757887791
0.0186354995083;-0.8334318765742077;2.1350600224402023
0.0187614150455;-0.8192523403524686;2.07366232718224
0.0188873305827;-0.8045532708474799;2.010949607792972
0.0190132461199;-0.7893439895533222;1.946961633881104
0.0191391616571;-0.7736341415176284;1.8817389837648617
0.0192650771944;-0.7574336892251273;1.815323018739036
0.0193909927316;-0.7407529062798784;1.747755856845494
0.0195169082688;-0.723602370890211;1.679080346163794
0.019642823806;-0.7059929591604972;1.609340037638848
0.0197687393432;-0.6879358381940103;1.5385791574628525
0.0198946548804;-0.669442459011248;1.466842579029015
0.0200205704177;-0.6505245492882045;1.394175794474845
0.0201464859549;-0.6311941059192013;1.3206248858330698
0.0202724014921;-0.6114633874089954;1.2462364958084764
0.0203983170293;-0.5913449060989778;1.1710577981991726
0.0205242325665;-0.5708514202324072;1.0951364679810762
0.0206501481038;-0.5499959258637032;1.0185206510745815
0.020776063641;-0.5287916486169243;0.9412589338125472
0.0209019791782;-0.50725203529867;0.8634003121290245
0.0210278947154;-0.4853907453707148;0.784994160488214
0.0211538102526;-0.4632216422877893;0.7060902005733956
0.0212797257898;-0.44075878470599184;0.6267384697556387
0.0214056413271;-0.418016417567418;0.5469892893623423
0.0215315568643;-0.39500896306665634;0.4668932327657014
0.0216574724015;-0.3717510115048711;0.38650109331131577
0.0217833879387;-0.34825731203728777;0.3058638521073263
0.0219093034759;-0.3245427633199346;0.2250326456944654
0.0220352190132;-0.3006224040615835;0.14405873361755553
0.0221611345504;-0.2765114034868668;0.06299346591897625
0.0222870500876;-0.2522250517166341;-0.018111749425233692
0.0224129656248;-0.22777875007164244;-0.09920547910601231
0.022538881162;-0.2031880013057207;-0.18023629709800149
0.0226647966992;-0.17846839977461817;-0.2611528172716265
0.0227907122365;-0.15363562154675828;-0.3419037259798925
0.0229166277737;-0.1287054144621786;-0.42243781459919855
0.0230425433109;-0.10369358814594837;-0.5027040120035793
0.0231684588481;-0.078616003982412;-0.5826514169517261
0.0232943743853;-0.053488565056609566;-0.6622293303662741
0.0234202899226;-0.02832720606924441;-0.7413872874849132
0.0235462054598;-0.003147883231610481;-0.8200750898628768
0.023672120997;0.022033435853126785;-0.8982428372065612
0.0237980365342;0.04720078231586844;-0.9758409590180555
0.0239239520714;0.07233819614833167;-1.0528202460305554
0.0240498676086;0.09742973632417237;-1.1291318814146762
0.0241757831459;0.12245949090807097;-1.2047274717359044
0.0243016986831;0.1474115871463738;-1.279559077643558
0.0244276142203;0.17227020153288702;-1.3535792442717904
0.0245535297575;0.19701956984343552;-1.4267410313333415
0.0246794452947;0.2216439971328325;-1.4989980428869774
0.024805360832;0.2461278676879099;-1.5703044567597175
0.0249312763692;0.27045565493031215;-1.6406150536052273
0.0250571919064;0.29461193126275703;-1.709885245579902
0.0251831074436;0.31858137785252677;-1.778071104618481
0.0253090229808;0.3423487943459936;-1.8451293902912815
0.025434938518;0.3658991085080023;-1.91101757722534
0.0255608540553;0.3892173857800112;-1.9756938820721115
0.0256867695925;0.41228883875091926;-2.0391172900045955
0.0258126851297;0.4350988365345878;-2.1012475807271236
0.0259386006669;0.4576329140480929;-2.162045353981269
0.0260645162041;0.47987678118483335;-2.221472054531727
0.0261904317413;0.5018163318766835;-2.2794899966163364
0.0263163472786;0.5234376530394294;-2.336062387844702
0.0264422628158;0.544727033395827;-2.3911533525302913
0.026568178353;0.5656709721706801;-2.444727954441183
0.0266940938902;0.5862561876524338;-2.4967522189550815
0.0268200094274;0.6064696256158404;-2.547193154604499
0.0269459249647;0.6262984676003681;-2.5960187739984746
0.0270718405019;0.6457301390390944;-2.643198114107544
0.0271977560391;0.6647523172329387;-2.6887012558991197
0.0273236715763;0.6833529391651672;-2.7324993433108067
0.0274495871135;0.701520209151217;-2.7745646015496193
0.0275755026507;0.719242606318998;-2.8148703547055294
0.027701418188;0.7365088919149121;-2.8533910426681293
0.0278273337252;0.7533081164309717;-2.8901022373357166
0.0279532492624;0.7696296265484862;-2.9249806581065045
0.0280791647996;0.7854630718939248;-2.9580041866421447
0.0282050803368;0.8007984116026605;-2.989151880894187
0.0283309958741;0.8156259206864361;-3.0184039883845917
0.0284569114113;0.8299361962005216;-3.045741958731875
0.0285828269485;0.84372016320664;-3.071148455414927
0.0287087424857;0.8569690805278891;-3.094607366767066
0.0288346580229;0.8696745462920044;-3.116103816193331
0.0289605735601;0.8818285032594537;-3.1356241716045625
0.0290864890974;0.8934232439329787;-3.1531560540622623
0.0292124046346;0.9044514154453432;-3.1686883456287593
0.0293383201718;0.9149060242221976;-3.1822111964177178
0.029464235709;0.9247804404170885;-3.19371603084049
0.0295901512462;0.9340684021158132;-3.2031955530443743
0.0297160667835;0.9427640193074448;-3.2106437515393185
0.0298419823207;0.9508617776195164;-3.2160559030101386
0.0299678978579;0.9583565418149884;-3.2194285753118357
0.0300938133951;0.9652435590487879;-3.2207596296461083
0.0302197289323;0.9715184618818493;-3.2200482219176827
0.0303456444695;0.9771772710507515;-3.2172948032696
0.0304715600068;0.9822163979911879;-3.2125011197971234
0.030597475544;0.9866326471136735;-3.2056702114404407
0.0307233910812;0.9904232178300463;-3.19680641005687
0.0308493066184;0.9935857063294745;-3.1859153366737902
0.0309752221556;0.9961181071028467;-3.1730038979240334
0.0311011376929;0.9980188142145753;-3.1580802816660114
0.0312270532301;0.9992866223210104;-3.1411539517913365
0.0313529687673;0.9999207274348142;-3.122235642223245
0.0314788843045;0.9999207274348142;-3.101337350109624
0.0316047998417;0.9992866223210104;-3.078472328214954
0.0317307153789;0.9980188142145754;-3.053655076515993
0.0318566309162;0.9961181071028468;-3.0269013330065486
0.0319825464534;0.9935857063294746;-2.9982280637171312
0.0321084619906;0.9904232178300464;-2.9676534519558664
0.0322343775278;0.9866326471136734;-2.9351968867774434
0.032360293065;0.9822163979911877;-2.9008789506874466
0.0324862086023;0.9771772710507516;-2.8647214065898496
0.0326121241395;0.9715184618818492;-2.826747183985943
0.0327380396767;0.9652435590487878;-2.786980364433483
0.0328639552139;0.9583565418149883;-2.745446166275228
0.0329898707511;0.9508617776195165;-2.702170928646603
0.0331157862883;0.9427640193074447;-2.657182094772578
0.0332417018256;0.9340684021158131;-2.610508194564421
0.0333676173628;0.9247804404170884;-2.56217882652728
0.0334935329;0.9149060242221978;-2.512224638990152
0.0336194484372;0.9044514154453431;-2.4606773106700572
0.0337453639744;0.8934232439329785;-2.407569530582832
0.0338712795116;0.8818285032594535;-2.3529349773131982
0.0339971950489;0.8696745462920041;-2.2968082976573174
0.0341231105861;0.8569690805278884;-2.2392250846513284
0.0342490261233;0.8437201632066403;-2.180221854999846
0.0343749416605;0.8299361962005214;-2.1198360259186737
0.0345008571977;0.8156259206864359;-2.0581058914065036
0.034626772735;0.8007984116026597;-1.9950705979605436
0.0347526882722;0.7854630718939252;-1.93077011975158
0.0348786038094;0.7696296265484859;-1.8652452332741138
0.0350045193466;0.7533081164309715;-1.7985374914877577
0.0351304348838;0.7365088919149119;-1.7306891974661778
0.035256350421;0.7192426063189983;-1.6617433775703931
0.0353822659583;0.7015202091512168;-1.5917437541633488
0.0355081814955;0.6833529391651669;-1.520734717883179
0.0356340970327;0.6647523172329385;-1.448761299492614
0.0357600125699;0.6457301390390947;-1.3758691413225062
0.0358859281071;0.6262984676003671;-1.3021044683274643
0.0360118436444;0.6064696256158407;-1.2275140587721018
0.0361377591816;0.5862561876524335;-1.1521452145662894
0.0362636747188;0.5656709721706797;-1.0760457312684433
0.036389590256;0.544727033395826;-0.9992638677756818
0.0365155057932;0.5234376530394298;-0.9218483157202122
0.0366414213304;0.5018163318766832;-0.8438481685912361
0.0367673368677;0.47987678118483296;-0.7653128906020893
0.0368932524049;0.45763291404809175;-0.6862922853222096
0.0370191679421;0.43509883653458825;-0.606836464093964
0.0371450834793;0.41228883875091893;-0.526995814254237
0.0372709990165;0.3892173857800108;-0.44682096718106895
0.0373969145538;0.36589910850800195;-0.36636276618546154
0.037522830091;0.342348794345994;-0.2856722342688462
0.0376487456282;0.3185813778525264;-0.20480054176653925
0.0377746611654;0.29461193126275664;-0.12379897389783767
0.0379005767026;0.27045565493031176;-0.04271889824318743
0.0380264922398;0.24612786768791037;0.038388267830816225
0.0381524077771;0.22164399713283126;0.11947108977806548
0.0382783233143;0.197019569843436;0.2004781484903802
0.0384042388515;0.1722702015328866;0.2813580729052751
0.0385301543887;0.14741158714637342;0.3620595725831413
0.0386560699259;0.12245949090806969;0.4425314702333921
0.0387819854632;0.09742973632417286;0.5227227341687886
0.0389079010004;0.07233819614833217;0.6025825106674935
0.0390338165376;0.04720078231586893;0.6820601562221922
0.0391597320748;0.022033435853126386;0.7611052696559808
0.039285647612;-0.0031478832316091027;0.8396677240845145
0.0394115631492;-0.02832720606924392;0.9176976987042752
0.0395374786865;-0.05348856505660907;0.9951457103866641
0.0396633942237;-0.0786160039824124;1.0719626450580262
0.0397893097609;-0.103693588145947;1.1480997888455775
0.0399152252981;-0.12870541446217812;1.2235088589696033
0.0400411408353;-0.15363562154675692;1.2981420343622014
0.0401670563726;-0.1784683997746186;1.3719519859933176
0.0402929719098;-0.2031880013057202;1.4448919068846435
0.040418887447;-0.22777875007164283;1.5169155417925846
0.0405448029842;-0.2522250517166336;1.5879772165412123
0.0406707185214;-0.27651140348686637;1.6580318669868324
0.0407966340586;-0.3006224040615822;1.7270350675956159
0.0409225495959;-0.3245427633199341;1.7949430596163294
0.0410484651331;-0.34825731203728727;1.8617127788301482
0.0411743806703;-0.3717510115048715;1.927301882860082
0.0413002962075;-0.39500896306665584;1.9916687780226148
0.0414262117447;-0.41801641756741836;2.054772645704576
0.0415521272819;-0.44075878470599056;2.1165734682484563
0.0416780428192;-0.46322164228778884;2.177032054329856
0.0418039583564;-0.4853907453707136;2.2361100638108375
0.0419298738936;-0.5072520352986704;2.29377003205357
0.0420557894308;-0.5287916486169238;2.349975393678682
0.042181704968;-0.5499959258637035;2.4046905057534476
0.0423076205053;-0.5708514202324068;2.457880670394901
0.0424335360425;-0.5913449060989774;2.5095121567737175
0.0425594515797;-0.6114633874089943;2.55955222250477
0.0426853671169;-0.6311941059192009;2.6079691344109204
0.0428112826541;-0.6505245492882041;2.6547321886467588
0.0429371981913;-0.6694424590112483;2.699811730169625
0.0430631137286;-0.6879358381940099;2.7431791715455094
0.0431890292658;-0.7059929591604972;2.7848070110779397
0.043314944803;-0.7236023708902104;2.8246688502483064
0.0434408603402;-0.7407529062798781;2.862739410456653
0.0435667758774;-0.7574336892251264;2.898994549052211
0.0436926914147;-0.7736341415176279;2.933411274643613
0.0438186069519;-0.7893439895533219;2.9659677616789915
0.0439445224891;-0.8045532708474801;2.9966433642867787
0.0440704380263;-0.8192523403524681;3.025418629368393
0.0441963535635;-0.8334318765742077;3.0522753089345342
0.0443222691007;-0.8470828874834463;3.0771963716772306
0.044448184638;-0.8601967162181079;3.100166013770348
0.0445741001752;-0.8727650465730825;3.1211696688916635
0.0447000157124;-0.8847799082739959;3.140194017460177
0.0448259312496;-0.8962336820316005;3.1572269950827985
