Mesure15
temps(s);entree;sortie
0.0;1.0;13.59086530846521
0.000425314703492;0.9996829223075361;13.71136599762472
0.000850629406984;0.9987318903066703;13.823171550202117
0.00127594411048;0.9971475070994674;13.926211064104171
0.00170125881397;0.99493077743107;14.020419196268282
0.00212657351746;0.992083107052534;14.105736204100133
0.00255188822095;0.9886063018293647;14.182107983359781
0.00297720292444;0.9845025665963167;14.249486102472154
0.00340251762794;0.9797745037591863;14.307827833240188
0.00382783233143;0.9744251116444819;14.35709617794115
0.00425314703492;0.9684577825980192;14.397259892788945
0.00467846173841;0.9618763008336467;14.42829350774752
0.0051037764419;0.9546848400334659;14.450177342682839
0.0055290911454;0.946887960701069;14.46289751984313
0.00595440584889;0.93849060726947;14.466445972659553
0.00637972055238;0.9294981049655667;14.460820450861645
0.00680503525587;0.9199161564331194;14.446024521904349
0.00723034995936;0.9097508381163878;14.422067568705685
0.00765566466286;0.899008596406722;14.388964783696533
0.00808097936635;0.8876962435545485;14.346737159186262
0.00850629406984;0.8758209533493445;14.295411474050347
0.00893160877333;0.8633902565703413;14.235020276748404
0.00935692347682;0.8504120362108399;14.165601864683401
0.00978223818032;0.8368945224791677;14.087200259915168
0.0102075528838;0.8228462875794488;13.99986518124355
0.0106328675873;0.8082762402754935;13.903652012678982
0.0110581822908;0.7931936202412581;13.798621768320409
0.0114834969943;0.7776079922014563;13.684841053662874
0.0119088116978;0.761529239866037;13.562382023359275
0.0123341264013;0.7449675596623765;13.431322335463113
0.0127594411048;0.7279334542691596;13.291745102181217
0.0131847558083;0.7104377259560488;13.143738837167682
0.0136100705117;0.6924914697333668;12.987397399392469
0.0140353852152;0.674106066316137;12.822819933620236
0.0144606999187;0.6552931749069402;12.650110807537136
0.0148860146222;0.6360647258021696;12.4693795455655
0.0153113293257;0.6164329128263689;12.280740759408337
0.0157366440292;0.5964101855994526;12.084314075367688
0.0161619587327;0.5760092416417125;11.880224058482987
0.0165872734362;0.555243018321617;11.66860013353745
0.0170125881397;0.5341246846515094;11.449576502982659
0.0174379028432;0.512667632936407;11.223292061833355
0.0178632175467;0.49088547028119967;10.989890309586421
0.0182885322502;0.468792009961631;10.749519259219902
0.0187138469536;0.4464012626645338;10.502331343329757
0.0191391616571;0.423727427602879;10.248483317463942
0.0195644763606;0.40078488351126845;9.988136160715015
0.0199897910641;0.37758817952758156;9.721454973634378
0.0204151057676;0.35415202596656187;9.448608873532873
0.0208404204711;0.3304912849911928;9.169770887234145
0.0212657351746;0.3066209611877746;8.885117841348722
0.0216910498781;0.28255619205068716;8.594830250138484
0.0221163645816;0.2583122383828663;8.299092201042582
0.0225416792851;0.2339044746180822;7.998091237937376
0.0229669939886;0.20934837907116027;7.692018242204488
0.0233923086921;0.18465952412232445;7.381067311682342
0.0238176233956;0.15985356634188824;7.065435637577977
0.024242938099;0.13494623656155616;6.7453233794171785
0.0246682528025;0.10995332989863303;6.420933538112245
0.025093567506;0.08489069573946394;6.092471827227852
0.0255188822095;0.05977422768846139;5.760146542526703
0.025944196913;0.034619853489090295;5.4241684298776365
0.0263695116165;0.009443524923203678;5.084750551610006
0.02679482632;-0.015738792304865912;4.742108151399055
0.0272201410235;-0.040911128693042885;4.396458517767987
0.027645455727;-0.06605752106865569;4.048020846293264
0.0280707704305;-0.09116202271156781;3.6970161006005626
0.028496085134;-0.11620871346687649;3.3436668722395013
0.0289213998375;-0.14118170984076459;2.988197239526004
0.0293467145409;-0.16606517507310406;2.6308326254418315
0.0297720292444;-0.1908433291804217;2.2717996546813946
0.0301973439479;-0.21550045896286202;1.9113260099364637
0.0306226586514;-0.24002092796879662;1.5496402875099788
0.0310479733549;-0.2643891864107644;1.1869718523504684
0.0314732880584;-0.2885897810264531;0.8235506925990321
0.0318986027619;-0.3126073648784687;0.459607273741123
0.0323239174654;-0.3364267070866785;0.09537239245561895
0.0327492321689;-0.3600327024869559;-0.26892296974613755
0.0331745468724;-0.3834103812102009;-0.6330477929984956
0.0335998615759;-0.40654491817556415;-0.9967711655840068
0.0340251762794;-0.42942164249185133;-1.3598624303673221
0.0344504909829;-0.4520260467611475;-1.7220913310676556
0.0348758056863;-0.4743437962787628;-2.0832281582770613
0.0353011203898;-0.49636073812366077;-2.443043895131862
0.0357264350933;-0.5180629101336108;-2.8013103625449496
0.0361517497968;-0.539436549759368;-3.157800363906769
0.0365770645003;-0.5604681027922681;-3.5122878291632893
0.0370023792038;-0.5811442319597027;-3.8645479581795352
0.0374276939073;-0.6014518253830199;-4.2143573632977835
0.0378530086108;-0.6213780048924964;-4.561494211000098
0.0382783233143;-0.6409101341940938;-4.905738362585177
0.0387036380178;-0.6600358268828372;-5.246871513770576
0.0391289527213;-0.6787429542977179;-5.5846773331314985
0.0395542674248;-0.6970196532131485;-5.918941599288524
0.0399795821282;-0.7148543333620937;-6.249452336757294
0.0404048968317;-0.7322356847860982;-6.575999950373857
0.0408302115352;-0.7491526850075594;-6.898377358210607
0.0412555262387;-0.7655946060196894;-7.216380122898376
0.0416808409422;-0.7815510210897404;-7.529806581271523
0.0421061556457;-0.7970118113711716;-7.838457972253698
0.0425314703492;-0.8119671723205705;-8.14213856290323
0.0429567850527;-0.826407619915258;-8.440655772538278
0.0433820997562;-0.8403239966676304;-8.73382029486284
0.0438074144597;-0.8537074774324318;-9.02144621801642
0.0442327291632;-0.8665495750032665;-9.303351142471012
0.0446580438667;-0.8788421454948057;-9.579356296700729
0.0450833585702;-0.8905773935072779;-9.849286650550752
0.0455086732736;-0.9017478770699624;-10.11297102623363
0.0459339879771;-0.9123465123605555;-10.3702422068826
0.0463593026806;-0.9223665781974153;-10.62093704259307
0.0467846173841;-0.9318017203018334;-10.864896553884998
0.0472099320876;-0.9406459553276372;-11.101966032520599
0.0476352467911;-0.9488936746555591;-11.331995139613385
0.0480605614946;-0.9565396479499745;-11.554838000966416
0.0484858761981;-0.963579026475745;-11.770353299579158
0.0489111909016;-0.9700073461730725;-11.978404365264467
0.0493365056051;-0.9758205304884048;-12.178859261318703
0.0497618203086;-0.9810148929596045;-12.371590868190093
0.0501871350121;-0.9855871395537396;-12.556476964092298
0.0506124497155;-0.9895343707560108;-12.733400302512
0.051037764419;-0.9928540834084959;-12.90224868656142
0.0514630791225;-0.99554417229754;-13.062915040128578
0.051888393826;-0.9976029314887879;-13.215297475780183
0.0523137085295;-0.9990290554090123;-13.3592993593741
0.052739023233;-0.9998216396740497;-13.494829371340403
0.0531643379365;-0.9999801816623203;-13.62180156459219
0.05358965264;-0.9995045808335686;-13.740135419029372
0.0540149673435;-0.9983951387926212;-13.849755892600935
0.054440282047;-0.9966525590981226;-13.95059346889327
0.0548655967505;-0.9942779468163697;-14.042584201214366
0.055290911454;-0.9912728078205282;-14.125669753145958
0.0557162261575;-0.9876390478356748;-14.199797435537878
0.0561415408609;-0.9833789712302712;-14.264920239921171
0.0565668555644;-0.9784952795548371;-14.320996868318746
0.0569921702679;-0.9729910698287468;-14.367991759434744
0.0574174849714;-0.9668698325762378;-14.405875111205896
0.0578427996749;-0.9601354496128763;-14.434622899700676
0.0582681143784;-0.9527921915838827;-14.454216894354209
0.0586934290819;-0.9448447152558785;-14.464644669529273
0.0591187437854;-0.9362980605637746;-14.465899612396084
0.0595440584889;-0.9271576474146664;-14.457980927125869
0.0599693731924;-0.9174292722507733;-14.44089363539553
0.0603946878959;-0.9071191043735917;-14.414648573203136
0.0608200025994;-0.8962336820316007;-14.379262383996203
0.0612453173028;-0.8847799082739954;-14.334757508117166
0.0616706320063;-0.8727650465730823;-14.281162168572719
0.0620959467098;-0.8601967162181081;-14.218510353136045
0.0625212614133;-0.8470828874834465;-14.146841792793275
0.0629465761168;-0.8334318765742077;-14.066201936547888
0.0633718908203;-0.8192523403524683;-13.976641922598949
0.0637972055238;-0.8045532708474799;-13.878218545911587
0.0642225202273;-0.7893439895533219;-13.770994222200128
0.0646478349308;-0.7736341415176284;-13.655036948346853
0.0650731496343;-0.7574336892251273;-13.530420259281392
0.0654984643378;-0.7407529062798782;-13.397223181348169
0.0659237790413;-0.723602370890211;-13.255530182191416
0.0663490937448;-0.7059929591604969;-13.10543111718955
0.0667744084482;-0.6879358381940103;-12.947021172472919
0.0671997231517;-0.6694424590112477;-12.780400804560985
0.0676250378552;-0.6505245492882038;-12.605675676657304
0.0680503525587;-0.6311941059192013;-12.422956591642617
0.0684756672622;-0.6114633874089946;-12.232359421808608
0.0689009819657;-0.5913449060989778;-12.034005035376898
0.0693262966692;-0.5708514202324072;-11.828019219849743
0.0697516113727;-0.5499959258637032;-11.614532602241296
0.0701769260762;-0.5287916486169243;-11.393680566239716
0.0706022407797;-0.5072520352986692;-11.1656031663529
0.0710275554832;-0.4853907453707148;-10.93044503909218
0.0714528701867;-0.4632216422877885;-10.688355311250255
0.0718781848901;-0.44075878470599184;-10.439487505331693
0.0723034995936;-0.418016417567418;-10.18399944219572
0.0727288142971;-0.3950089630666555;-9.922053140973379
0.0731541290006;-0.3717510115048711;-9.653814716322165
0.0735794437041;-0.34825731203728694;-9.379454273083478
0.0740047584076;-0.3245427633199346;-9.099145798409841
0.0744300731111;-0.30062240406158264;-8.813067051429892
0.0748553878146;-0.2765114034868668;-8.521399450521564
0.0752807025181;-0.2522250517166341;-8.224327958264547
0.0757060172216;-0.22777875007164158;-7.922040964145384
0.0761313319251;-0.2031880013057207;-7.614730165089209
0.0765566466286;-0.17846839977461731;-7.30259044389405
0.0769819613321;-0.15363562154675828;-6.985819745644981
0.0774072760355;-0.1287054144621786;-6.664618952186077
0.077832590739;-0.1036935881459475;-6.33919175473014
0.0782579054425;-0.078616003982412;-6.0097445246868615
0.078683220146;-0.05348856505660868;-5.676486182791201
0.0791085348495;-0.02832720606924441;-5.339628066615278
0.079533849553;-0.003147883231609593;-4.999383796547375
0.0799591642565;0.022033435853126785;-4.655969140323582
0.08038447896;0.04720078231586844;-4.309601876197394
0.0808097936635;0.07233819614833256;-3.9605016548345087
0.081235108367;0.09742973632417237;-3.608889860020206
0.0816604230705;0.12245949090807097;-3.254989468267548
0.082085737774;0.14741158714637292;-2.899024907415729
0.0825110524774;0.17227020153288702;-2.541221914307808
0.0829363671809;0.19701956984343552;-2.181807391638644
0.0833616818844;0.22164399713283164;-1.821009264063196
0.0837869965879;0.2461278676879099;-1.4590563336569269
0.0842123112914;0.27045565493031215;-1.0961781348197686
0.0846376259949;0.2946119312627562;-0.7326047887155743
0.0850629406984;0.31858137785252594;-0.36856685733959194
0.0854882554019;0.3423487943459936;-0.004295197306308934
0.0859135701054;0.3658991085080031;0.35997918654947525
0.0863388848089;0.38921738578001036;0.7240252876656214
0.0867641995124;0.41228883875091926;1.0876122442467961
0.0871895142159;0.4350988365345878;1.4505094856665555
0.0876148289194;0.4576329140480921;1.81248687868509
0.0880401436228;0.47987678118483257;2.1733148733893954
0.0884654583263;0.5018163318766835;2.53276464876361
0.0888907730298;0.5234376530394301;2.8906082577970564
0.0893160877333;0.5447270333958263;3.2466187720380777
0.0897414024368;0.5656709721706801;3.6005704255020285
0.0901667171403;0.5862561876524338;3.9522387578418225
0.0905920318438;0.6064696256158404;4.301400756690811
0.0910173465473;0.6262984676003681;4.647834999087222
0.0914426612508;0.6457301390390944;4.9913217918906945
0.0918679759543;0.6647523172329387;5.3316433111019315
0.0922932906578;0.6833529391651665;5.668583739996918
0.0927186053613;0.701520209151217;6.001929405988283
0.0931439200647;0.719242606318998;6.3314689161268705
0.0935692347682;0.7365088919149121;6.656993291157793
0.0939945494717;0.7533081164309717;6.9782960980457105
0.0944198641752;0.7696296265484862;7.29517358088542
0.0948451788787;0.7854630718939248;7.607424790114828
0.0952704935822;0.80079841160266;7.91485170994815
0.0956958082857;0.8156259206864361;8.217259383948713
0.0961211229892;0.8299361962005222;8.514456038661594
0.0965464376927;0.84372016320664;8.806253205227806
0.0969717523962;0.8569690805278891;9.092465838902907
0.0973970670997;0.8696745462920044;9.372912436403983
0.0978223818032;0.8818285032594537;9.647415151011055
0.0982476965067;0.8934232439329782;9.91579990534948
0.0986730112101;0.9044514154453432;10.177896501782069
0.0990983259136;0.9149060242221976;10.433538730340803
0.0995236406171;0.9247804404170885;10.682564474129839
0.0999489553206;0.9340684021158132;10.924815812132776
0.100374270024;0.9427640193074448;11.160139119359094
0.100799584728;0.9508617776195164;11.388385164266326
0.101224899431;0.9583565418149886;11.609409203396012
0.101650214135;0.9652435590487879;11.823071073163526
0.102075528838;0.9715184618818493;12.029235278743608
0.102500843542;0.9771772710507515;12.227771079995112
0.102926158245;0.9822163979911879;12.418552574370576
0.103351472949;0.9866326471136735;12.601458776757987
0.103776787652;0.9904232178300463;12.776373696204171
0.104202102356;0.9935857063294746;12.94318640947106
0.104627417059;0.9961181071028467;13.101791131378253
0.105052731763;0.9980188142145753;13.25208728188728
0.105478046466;0.9992866223210104;13.393979549884964
0.10590336117;0.9999207274348142;13.52737795362548
0.106328675873;0.9999207274348142;13.652197897792746
0.106753990576;0.9992866223210104;13.768360227147024
0.10717930528;0.9980188142145753;13.875791276721634
0.107604619983;0.9961181071028467;13.974422918537972
0.108029934687;0.9935857063294746;14.064192604809257
0.10845524939;0.9904232178300464;14.145043407605542
0.108880564094;0.9866326471136734;14.216924054954857
0.109305878797;0.9822163979911878;14.279788963357609
0.109731193501;0.9771772710507516;14.333598266693613
0.110156508204;0.9715184618818492;14.378317841503401
0.110581822908;0.9652435590487878;14.413919328627795
0.111007137611;0.9583565418149885;14.440380151192022
0.111432452315;0.9508617776195165;14.457683528922967
0.111857767018;0.9427640193074447;14.46581848879046
0.112283081722;0.9340684021158131;14.464779871965899
0.112708396425;0.9247804404170887;14.45456833709373
0.113133711129;0.9149060242221975;14.435190359873788
0.113559025832;0.9044514154453431;14.406658228954672
0.113984340536;0.8934232439329785;14.368990038140849
0.114409655239;0.8818285032594535;14.322209674918364
0.114834969943;0.8696745462920041;14.266346805306462
0.115260284646;0.856969080527889;14.201436855044726
0.11568559935;0.8437201632066403;14.127520987127651
0.116110914053;0.8299361962005214;14.044646075700904
0.116536228757;0.8156259206864364;13.952864676335851
0.11696154346;0.8007984116026603;13.852234992701124
0.117386858164;0.7854630718939246;13.742820839652486
0.117812172867;0.7696296265484859;13.624691602764289
0.118237487571;0.7533081164309715;13.497922194328217
0.118662802274;0.7365088919149124;13.362593005847271
0.119088116978;0.7192426063189977;13.218789857055066
0.119513431681;0.7015202091512168;13.066603941492783
0.119938746385;0.6833529391651669;12.906131768678282
0.120364061088;0.6647523172329385;12.73747510290408
0.120789375792;0.645730139039094;12.560740898702992
0.121214690495;0.6262984676003679;12.376041233022306
0.121640005199;0.6064696256158407;12.183493234149608
0.122065319902;0.5862561876524335;11.983219007435238
0.122490634606;0.5656709721706797;11.775345557858538
0.122915949309;0.5447270333958266;11.560004709486934
0.123341264013;0.523437653039429;11.337333021879012
0.123766578716;0.501816331876684;11.10747170348456
0.12419189342;0.47987678118483296;10.870566522096391
0.124617208123;0.45763291404809175;10.626767712411016
0.125042522827;0.4350988365345867;10.37622988075644
0.12546783753;0.41228883875091893;10.11911190704775
0.125893152234;0.3892173857800108;9.85557684403251
0.126318466937;0.3658991085080028;9.585791813890054
0.126743781641;0.3423487943459932;9.309927902250013
0.127169096344;0.3185813778525264;9.02816004969748
0.127594411048;0.29461193126275664;8.740666940833439
0.128019725751;0.27045565493031176;8.447630890960998
0.128445040455;0.2461278676879095;8.149237730469181
0.128870355158;0.22164399713283212;7.84567668698753
0.129295669862;0.197019569843436;7.537140265386421
0.129720984565;0.1722702015328866;7.223824125699051
0.130146299269;0.14741158714637342;6.905926959042607
0.130571613972;0.12245949090807058;6.583650361617168
0.130996928676;0.09742973632417197;6.2571987068624155
0.131422243379;0.07233819614833217;5.926779015853152
0.131847558083;0.04720078231586893;5.59260082601571
0.132272872786;0.022033435853126386;5.254876058248685
0.13269818749;-0.003147883231609991;4.913818882532205
0.133123502193;-0.02832720606924392;4.569645582110807
0.133548816896;-0.05348856505660907;4.222574416336301
0.1339741316;-0.0786160039824124;3.8728254822574044
0.134399446303;-0.10369358814594788;3.5206205750440605
0.134824761007;-0.12870541446217812;3.1661830473347643
0.13525007571;-0.15363562154675867;2.8097376675963215
0.135675390414;-0.1784683997746186;2.451510477585737
0.136100705117;-0.2031880013057202;2.0917286490046103
0.136526019821;-0.2277787500716411;1.7306203394369088
0.136951334524;-0.25222505171663534;1.368414547661637
0.137376649228;-0.27651140348686637;1.005340968432203
0.137801963931;-0.3006224040615822;0.6416298468139491
0.138227278635;-0.32454276331993576;0.2775118321731562
0.138652593338;-0.34825731203728727;-0.08678216809033909
0.139077908042;-0.37175101150486983;-0.45102113497462415
0.139503222745;-0.39500896306665584;-0.8149740843774745
0.139928537449;-0.41801641756741836;-1.1784102135761403
0.140353852152;-0.44075878470599056;-1.5410990475921869
0.140779166856;-0.46322164228778884;-1.902810585348521
0.141204481559;-0.48539074537071514;-2.263315445525659
0.141629796263;-0.5072520352986704;-2.622385012025226
0.142055110966;-0.5287916486169238;-2.979791578948038
0.14248042567;-0.549995925863702;-3.3353084949950973
0.142905740373;-0.5708514202324082;-3.68871030719971
0.143331055077;-0.5913449060989774;-4.0397729038995225
0.14375636978;-0.6114633874089943;-4.388273656858442
0.144181684484;-0.6311941059192023;-4.733991562447376
0.144606999187;-0.6505245492882041;-5.076707381794732
0.145032313891;-0.669442459011247;-5.41620377981822
0.145457628594;-0.6879358381940112;-5.752265463048917
0.145882943298;-0.7059929591604972;-6.084679316160639
0.146308258001;-0.7236023708902104;-6.413234537118459
0.146733572705;-0.7407529062798781;-6.737722770859783
0.147158887408;-0.7574336892251275;-7.057938241423815
0.147584202112;-0.7736341415176279;-7.373677882445536
0.148009516815;-0.7893439895533219;-7.6847414659314035
0.148434831519;-0.8045532708474801;-7.990931729234871
0.148860146222;-0.8192523403524691;-8.292054500151654
0.149285460926;-0.8334318765742077;-8.587918820055028
0.149710775629;-0.8470828874834463;-8.878337064993342
0.150136090333;-0.8601967162181088;-9.163125064672727
0.150561405036;-0.8727650465730825;-9.442102219249538
0.15098671974;-0.8847799082739951;-9.715091613858975
0.151412034443;-0.8962336820316013;-9.981920130806452
0.151837349147;-0.9071191043735918;-10.242418559351023
0.15226266385;-0.9174292722507729;-10.496421703011496
0.152687978554;-0.9271576474146663;-10.743768484326546
0.153113293257;-0.9362980605637747;-10.984302047002842
0.153538607961;-0.9448447152558784;-11.217869855386342
