Mesure19
temps(s);entree;sortie
0.0;1.0;15.620459376962037
0.00032750105505;0.9996829223075361;15.911503941996802
0.000655002110101;0.9987318903066703;16.192458141124447
0.000982503165151;0.9971475070994674;16.46314380572668
0.0013100042202;0.99493077743107;16.723389279031668
0.00163750527525;0.992083107052534;16.973029524971114
0.0019650063303;0.9886063018293647;17.21190623283876
0.00229250738535;0.9845025665963167;17.439867917683976
0.0026200084404;0.9797745037591863;17.65677001637676
0.00294750949545;0.9744251116444819;17.862474979283224
0.0032750105505;0.9684577825980192;18.05685235749344
0.00360251160555;0.9618763008336467;18.2397788855463
0.0039300126606;0.9546848400334659;18.411138559599003
0.00425751371565;0.946887960701069;18.570822710991475
0.0045850147707;0.93849060726947;18.718730075159232
0.00491251582575;0.9294981049655667;18.854766855850816
0.0052400168808;0.9199161564331194;18.978846784609203
0.00556751793586;0.9097508381163879;19.090891175479406
0.00589501899091;0.899008596406722;19.19082897490761
0.00622252004596;0.8876962435545485;19.278596806800145
0.00655002110101;0.8758209533493445;19.35413901271379
0.00687752215606;0.8633902565703414;19.417407687151883
0.00720502321111;0.8504120362108399;19.46836270794383
0.00753252426616;0.8368945224791678;19.5069717616888
0.00786002532121;0.8228462875794489;19.53321036424746
0.00818752637626;0.8082762402754936;19.547061876268703
0.00851502743131;0.7931936202412582;19.54851751374159
0.00884252848636;0.7776079922014563;19.537576353565786
0.00917002954141;0.761529239866037;19.514245334136923
0.00949753059646;0.7449675596623766;19.478539250946614
0.00982503165151;0.7279334542691596;19.430480747199788
0.0101525327066;0.7104377259560488;19.370100299455387
0.0104800337616;0.692491469733367;19.297436198299497
0.0108075348167;0.674106066316137;19.212534524063145
0.0111350358717;0.6552931749069403;19.11544911760025
0.0114625369268;0.6360647258021697;19.006241546144114
0.0117900379818;0.6164329128263689;18.88498106426425
0.0121175390369;0.5964101855994527;18.75174456994822
0.0124450400919;0.5760092416417125;18.606616555836364
0.012772541147;0.5552430183216172;18.449689055640338
0.013100042202;0.5341246846515095;18.281061585779433
0.0134275432571;0.512667632936407;18.100841082271703
0.0137550443121;0.4908854702811999;17.90914183291993
0.0140825453672;0.468792009961631;17.706085404835374
0.0144100464222;0.4464012626645338;17.491800567345344
0.0147375474773;0.423727427602879;17.26642321033345
0.0150650485323;0.4007848835112687;17.03009625806428
0.0153925495874;0.37758817952758156;16.782969578547213
0.0157200506424;0.3541520259665621;16.525199888496836
0.0160475516975;0.3304912849911928;16.256950653950156
0.0163750527525;0.3066209611877748;15.978391986603768
0.0167025538076;0.2825561920506874;15.689700535936584
0.0170300548626;0.25831223838286654;15.391059377186627
0.0173575559177;0.2339044746180822;15.082657895252886
0.0176850569727;0.20934837907116027;14.764691664595844
0.0180125580278;0.18465952412232445;14.437362325212899
0.0183400590828;0.15985356634188846;14.100877454767266
0.0186675601379;0.13494623656155638;13.755450436951481
0.0189950611929;0.10995332989863325;13.401300326168997
0.019322562248;0.08489069573946416;13.038651708619637
0.019650063303;0.05977422768846139;12.66773455987705
0.0199775643581;0.034619853489090295;12.288784099048486
0.0203050654131;0.0094435249232039;11.902040639609298
0.0206325664682;-0.01573879230486569;11.507749437006861
0.0209600675232;-0.04091112869304266;11.106160533130552
0.0212875685783;-0.06605752106865546;10.697528597746285
0.0216150696333;-0.09116202271156781;10.282112766996331
0.0219425706884;-0.11620871346687627;9.86017647906676
0.0222700717434;-0.14118170984076436;9.43198730712664
0.0225975727985;-0.16606517507310362;8.99781678964514
0.0229250738535;-0.1908433291804215;8.557940258193888
0.0232525749086;-0.21550045896286182;8.11263666284401
0.0235800759636;-0.2400209279687964;7.662188395268431
0.0239075770187;-0.2643891864107642;7.206881109661654
0.0242350780737;-0.2885897810264529;6.747003541590659
0.0245625791288;-0.31260736487846846;6.282847324891628
0.0248900801838;-0.3364267070866785;5.814706806728836
0.0252175812389;-0.3600327024869557;5.34287886093279
0.0255450822939;-0.38341038121020066;4.867662699736057
0.025872583349;-0.40654491817556393;4.389359684026282
0.026200084404;-0.4294216424918509;3.908273132236496
0.0265275854591;-0.4520260467611475;3.424708127994125
0.0268550865141;-0.4743437962787628;2.93897132665058
0.0271825875692;-0.4963607381236604;2.4513707608140995
0.0275100886242;-0.5180629101336105;1.9622156450091857
0.0278375896793;-0.5394365497593675;1.471816179586608
0.0281650907343;-0.5604681027922681;0.9804833540081126
0.0284925917894;-0.5811442319597027;0.4885287496308409
0.0288200928444;-0.6014518253830199;-0.0037356578836926268
0.0291475938995;-0.621378004892496;-0.4959976964106716
0.0294750949545;-0.6409101341940938;-0.98794519532756
0.0298025960096;-0.6600358268828372;-1.479266183478809
0.0301300970646;-0.6787429542977176;-1.9696490870140633
0.0304575981197;-0.6970196532131485;-2.458782926974378
0.0307850991747;-0.7148543333620937;-2.9463575165011826
0.0311126002298;-0.732235684786098;-3.432063657542967
0.0314401012848;-0.749152685007559;-3.915593336934914
0.0317676023399;-0.7655946060196894;-4.396639921727055
0.0320951033949;-0.7815510210897404;-4.874898353637237
0.03242260445;-0.7970118113711714;-5.350065342505482
0.032750105505;-0.8119671723205703;-5.821839558627063
0.0330776065601;-0.8264076199152576;-6.289921823842361
0.0334051076151;-0.8403239966676301;-6.754015301262294
0.0337326086702;-0.8537074774324318;-7.213825683509046
0.0340601097252;-0.8665495750032662;-7.669061379352662
0.0343876107803;-0.8788421454948057;-8.119433698625228
0.0347151118353;-0.8905773935072779;-8.564657035295243
0.0350426128904;-0.9017478770699623;-9.00444904858626
0.0353701139454;-0.9123465123605555;-9.438530842024813
0.0356976150005;-0.9223665781974153;-9.866627140304088
0.0360251160555;-0.9318017203018334;-10.288466463851256
0.0363526171106;-0.940645955327637;-10.703781300987721
0.0366801181656;-0.948893674655559;-11.112308277573076
0.0370076192207;-0.9565396479499741;-11.513788324025239
0.0373351202757;-0.9635790264757449;-11.907966839610797
0.0376626213308;-0.9700073461730724;-12.294593853901468
0.0379901223858;-0.9758205304884047;-12.673424185294191
0.0383176234409;-0.9810148929596045;-13.044217596494336
0.0386451244959;-0.9855871395537394;-13.406738946863486
0.038972625551;-0.9895343707560108;-13.760758341535167
0.039300126606;-0.9928540834084959;-14.10605127720387
0.0396276276611;-0.9955441722975399;-14.44239878449506
0.0399551287161;-0.9976029314887879;-14.769587566825793
0.0402826297712;-0.9990290554090123;-15.08741013566785
0.0406101308262;-0.9998216396740497;-15.395664942127762
0.0409376318813;-0.9999801816623203;-15.694156504760082
0.0412651329363;-0.9995045808335686;-15.982695533533008
0.0415926339914;-0.9983951387926212;-16.261099049867674
0.0419201350464;-0.9966525590981226;-16.529190502675025
0.0422476361015;-0.9942779468163697;-16.786799880316607
0.0425751371565;-0.9912728078205283;-17.03376381841837
0.0429026382116;-0.9876390478356748;-17.269925703469106
0.0432301392666;-0.9833789712302712;-17.495135772137676
0.0435576403217;-0.9784952795548372;-17.7092512062463
0.0438851413767;-0.972991069828747;-17.912136223339438
0.0442126424318;-0.966869832576238;-18.103662162790986
0.0445401434868;-0.9601354496128764;-18.283707567395087
0.0448676445419;-0.9527921915838827;-18.452158260388877
0.0451951455969;-0.9448447152558789;-18.608907417858298
0.045522646652;-0.9362980605637747;-18.753855636481063
0.045850147707;-0.9271576474146666;-18.88691099656379
0.0461776487621;-0.9174292722507734;-19.00798912033339
0.0465051498171;-0.9071191043735918;-19.11701322544568
0.0468326508722;-0.8962336820316007;-19.21391417367732
0.0471601519272;-0.8847799082739957;-19.298630514770178
0.0474876529823;-0.8727650465730825;-19.37110852540036
0.0478151540373;-0.8601967162181083;-19.431302243247135
0.0481426550924;-0.8470828874834473;-19.4791734961402
0.0484701561474;-0.8334318765742079;-19.514691926266735
0.0487976572025;-0.8192523403524686;-19.537835009423024
0.0491251582575;-0.8045532708474802;-19.54858806929825
0.0494526593126;-0.7893439895533222;-19.546944286781596
0.0497801603676;-0.7736341415176284;-19.532904704286594
0.0501076614227;-0.7574336892251275;-19.50647822509008
0.0504351624777;-0.7407529062798784;-19.467681607686153
0.0507626635328;-0.723602370890211;-19.41653945515865
0.0510901645878;-0.7059929591604972;-19.35308419957899
0.0514176656429;-0.6879358381940103;-19.277356081439205
0.0517451666979;-0.669442459011248;-19.189403124133204
0.052072667753;-0.6505245492882045;-19.08928110350248
0.052400168808;-0.631194105919202;-18.97705351246557
0.0527276698631;-0.6114633874089954;-18.85279152075366
0.0530551709182;-0.5913449060989778;-18.716573929777944
0.0533826719732;-0.570851420232408;-18.56848712265726
0.0537101730283;-0.5499959258637032;-18.40862500943777
0.0540376740833;-0.5287916486169243;-18.237088967539435
0.0543651751384;-0.50725203529867;-18.053987777466926
0.0546926761934;-0.4853907453707148;-17.859437553825906
0.0550201772485;-0.4632216422877893;-17.65356167168835
0.0553476783035;-0.44075878470599184;-17.436490688353537
0.0556751793586;-0.4180164175674188;-17.208362260554463
0.0560026804136;-0.39500896306665634;-16.969321057162055
0.0563301814687;-0.3717510115048711;-16.71951866744269
0.0566576825237;-0.34825731203728777;-16.459113504926957
0.0569851835788;-0.3245427633199346;-16.188270706950934
0.0573126846338;-0.3006224040615835;-15.907162029933431
0.0576401856889;-0.2765114034868668;-15.615965740455728
0.0579676867439;-0.2522250517166341;-15.314866502212853
0.058295187799;-0.22777875007164244;-15.004055258908162
0.058622688854;-0.2031880013057207;-14.683729113165276
0.0589501899091;-0.17846839977461731;-14.354091201534441
0.0592776909641;-0.15363562154675914;-14.015350565672433
0.0596051920192;-0.1287054144621786;-13.667722019777525
0.0599326930742;-0.10369358814594837;-13.311426014364091
0.0602601941293;-0.07861600398241289;-12.94668849646258
0.0605876951843;-0.053488565056609566;-12.573740766334032
0.0609151962394;-0.02832720606924441;-12.192819330789845
0.0612426972944;-0.003147883231610481;-11.804165753209585
0.0615701983495;0.022033435853126785;-11.408026500352333
0.0618976994045;0.04720078231586844;-11.004652786058495
0.0622252004596;0.07233819614833167;-10.594300411941118
0.0625527015146;0.09742973632417148;-10.177229605167962
0.0628802025697;0.1224594909080701;-9.753704853437029
0.0632077036247;0.14741158714637292;-9.323994737250306
0.0635352046798;0.17227020153288702;-8.8883717595919
0.0638627057348;0.19701956984343466;-8.447112173118938
0.0641902067899;0.22164399713283164;-8.000495804974275
0.0645177078449;0.24612786768790904;-7.548805879332806
0.0648452089;0.2704556549303113;-7.092328837793184
0.065172709955;0.2946119312627562;-6.631354157729381
0.0655002110101;0.3185813778525251;-6.166174168717122
0.0658277120651;0.34234879434599275;-5.697083867151336
0.0661552131202;0.3658991085080015;-5.224380729172824
0.0664827141752;0.38921738578001036;-4.748364522021978
0.0668102152303;0.4122888387509185;-4.269337113939908
0.0671377162853;0.4350988365345878;-3.787602282736944
0.0674652173404;0.4576329140480921;-3.3034655231504337
0.0677927183954;0.47987678118483257;-2.817233853113494
0.0681202194505;0.5018163318766827;-2.3292156190580013
0.0684477205055;0.5234376530394294;-1.8397203003750076
0.0687752215606;0.5447270333958263;-1.3490583131567868
0.0691027226156;0.5656709721706794;-0.8575408133446962
0.0694302236707;0.5862561876524338;-0.3654794994080102
0.0697577247257;0.6064696256158396;0.12681358532127146
0.0700852257808;0.6262984676003674;0.6190262505325743
0.0704127268358;0.6457301390390937;1.1108463569136728
0.0707402278909;0.6647523172329387;1.6019620140957247
0.0710677289459;0.6833529391651665;2.09206177844007
0.071395230001;0.701520209151217;2.580834850542033
0.071722731056;0.7192426063189974;3.067971272325881
0.0720502321111;0.7365088919149121;3.5531621236066138
0.0723777331661;0.7533081164309712;4.036099717993122
0.0727052342212;0.7696296265484857;4.516477798009359
0.0730327352762;0.7854630718939248;4.993991729309099
0.0733602363313;0.8007984116026594;5.468338693861377
0.0736877373863;0.8156259206864356;5.939217881984368
0.0740152384414;0.8299361962005212;6.406330683105222
0.0743427394964;0.84372016320664;6.8693808751257714
0.0746702405515;0.8569690805278887;7.328074812273223
0.0749977416065;0.8696745462920044;7.782121611317334
0.0753252426616;0.8818285032594533;8.231233336035432
0.0756527437166;0.8934232439329782;8.675125179808916
0.0759802447717;0.9044514154453429;9.113515646234685
0.0763077458267;0.9149060242221972;9.546126727637771
0.0766352468818;0.9247804404170885;9.972684081371336
0.0769627479368;0.9340684021158125;10.392917203792484
0.0772902489919;0.9427640193074446;10.806559601803766
0.0776177500469;0.9508617776195161;11.213348961851006
0.077945251102;0.9583565418149884;11.613027316271026
0.078272752157;0.9652435590487877;12.005341206883106
0.0786002532121;0.9715184618818493;12.390041845720956
0.0789277542671;0.9771772710507513;12.766885272802835
0.0792552553222;0.9822163979911877;13.135632510840235
0.0795827563772;0.9866326471136733;13.496049716786438
0.0799102574323;0.9904232178300463;13.847908330129497
0.0802377584873;0.9935857063294745;14.190985217835008
0.0805652595424;0.9961181071028467;14.525062815847194
0.0808927605974;0.9980188142145753;14.849929267058297
0.0812202616525;0.9992866223210104;15.165378555658895
0.0815477627075;0.9999207274348142;15.471210637783964
0.0818752637626;0.9999207274348142;15.767231568371717
0.0822027648176;0.9992866223210104;16.05325362415499
0.0825302658727;0.9980188142145754;16.329095422706885
0.0828577669277;0.9961181071028467;16.594582037465475
0.0831852679828;0.9935857063294747;16.849545108664362
0.0835127690378;0.9904232178300464;17.09382295009902
0.0838402700929;0.9866326471136735;17.327260651660865
0.0841677711479;0.982216397991188;17.549710177574408
0.084495272203;0.9771772710507516;17.761030460274924
0.084822773258;0.9715184618818496;17.96108748986717
0.0851502743131;0.965243559048788;18.14975439910858
0.0854777753681;0.9583565418149889;18.32691154386266
0.0858052764232;0.9508617776195165;18.492446578972114
0.0861327774782;0.942764019307445;18.646254529503015
0.0864602785333;0.9340684021158131;18.7882378573153
0.0867877795883;0.9247804404170891;18.91830652291705
0.0871152806434;0.9149060242221978;19.036378042563587
0.0874427816984;0.9044514154453435;19.1423775405649
0.0877702827535;0.8934232439329789;19.236237796768545
0.0880977838085;0.8818285032594539;19.317899289187622
0.0884252848636;0.869674546292005;19.387310231746955
0.0887527859186;0.8569690805278894;19.444426607123567
0.0890802869737;0.8437201632066408;19.489212194660432
0.0894077880287;0.829936196200522;19.521638593336053
0.0897352890838;0.8156259206864364;19.54168523977509
0.0900627901388;0.8007984116026603;19.54933942128876
0.0903902911939;0.7854630718939257;19.544596283936635
0.0907177922489;0.7696296265484865;19.52745883560481
0.091045293304;0.7533081164309721;19.49793794409843
0.091372794359;0.7365088919149124;19.456052330249808
0.0917002954141;0.7192426063189983;19.40182855604652
0.0920277964691;0.7015202091512174;19.335301007786967
0.0923552975242;0.6833529391651676;19.25651187427413
0.0926827985792;0.6647523172329398;19.165511120061286
0.0930102996343;0.6457301390390947;19.06235645376676
0.0933378006893;0.6262984676003686;18.947113291477667
0.0936653017444;0.6064696256158407;18.819854715265937
0.0939928027994;0.5862561876524341;18.680661426842967
0.0943203038545;0.5656709721706805;18.529621696382147
0.0946478049095;0.5447270333958274;18.366831306541894
0.0949753059646;0.5234376530394298;18.192393491724523
0.0953028070196;0.501816331876684;18.00641887260966
0.0956303080747;0.47987678118483373;17.809025386003462
0.0959578091297;0.45763291404809253;17.600338210048406
0.0962853101848;0.4350988365345891;17.38048968484091
0.0966128112398;0.41228883875091976;17.14961922850707
0.0969403122949;0.38921738578001164;16.907873248790022
0.0972678133499;0.3658991085080028;16.655405050204564
0.097595314405;0.342348794345994;16.392374736818372
0.09792281546;0.3185813778525264;16.11894911072106
0.0982503165151;0.29461193126275753;15.835301566245828
0.0985778175701;0.27045565493031265;15.541611980010382
0.0989053186252;0.24612786768791037;15.238066596847364
0.0992328196802;0.22164399713283298;14.924857911696067
0.0995603207353;0.197019569843436;14.60218454753077
0.0998878217903;0.17227020153288836;14.270251129402968
0.100215322845;0.14741158714637428;13.929268154677162
0.1005428239;0.12245949090807146;13.57945185954297
0.100870324955;0.09742973632417286;13.221024081887672
0.101197826011;0.07233819614833305;12.854212120616593
0.101525327066;0.04720078231586893;12.479248591510206
0.101852828121;0.022033435853128162;12.096371279709688
0.102180329176;-0.0031478832316091027;11.705822988924025
0.102507830231;-0.028327206069243032;11.307851387454937
0.102835331286;-0.05348856505660907;10.902708851136518
0.103162832341;-0.07861600398241152;10.490652303289862
0.103490333396;-0.103693588145947;10.07194305179367
0.103817834451;-0.12870541446217723;9.646846623374497
0.104145335506;-0.15363562154675692;9.215632595221535
0.104472836561;-0.17846839977461684;8.778574424032783
0.104800337616;-0.20318800130571849;8.335949272601068
0.105127838671;-0.2277787500716411;7.88803783404962
0.105455339726;-0.2522250517166336;7.435124153829192
0.105782840781;-0.27651140348686637;6.977495449589006
0.106110341836;-0.3006224040615822;6.515441929036185
0.106437842891;-0.3245427633199341;6.049256605898849
0.106765343946;-0.3482573120372856;5.579235114110105
0.107092845001;-0.37175101150486983;5.105675520329934
0.107420346057;-0.39500896306665584;4.628878134924853
0.107747847112;-0.41801641756741675;4.149145321524368
0.108075348167;-0.44075878470599056;3.6667813052753555
0.108402849222;-0.4632216422877873;3.182091979916284
0.108730350277;-0.4853907453707136;2.695384713792778
0.109057851332;-0.5072520352986689;2.2069681549385685
0.109385352387;-0.5287916486169238;1.71715203534454
0.109712853442;-0.549995925863702;1.2262469745405924
0.110040354497;-0.5708514202324068;0.734564282614454
0.110367855552;-0.591344906098976;0.24241576279295435
0.110695356607;-0.6114633874089943;-0.24988648628994647
0.111022857662;-0.6311941059192009;-0.7420302685119458
0.111350358717;-0.6505245492882027;-1.233703488243354
0.111677859772;-0.669442459011247;-1.7245943482643233
0.112005360827;-0.6879358381940099;-2.214391547492524
0.112332861882;-0.7059929591604959;-2.70278447839651
0.112660362937;-0.7236023708902104;-3.1894634239692548
0.112987863992;-0.7407529062798781;-3.674119754136659
0.113315365047;-0.7574336892251264;-4.156446121477074
0.113642866102;-0.7736341415176279;-4.636136656127425
0.113970367158;-0.7893439895533219;-5.112887159752031
0.114297868213;-0.8045532708474801;-5.586395298451751
0.114625369268;-0.8192523403524681;-6.056360794490589
0.114952870323;-0.8334318765742067;-6.522485616718535
0.115280371378;-0.8470828874834463;-6.984474169569558
0.115607872433;-0.8601967162181079;-7.442033480515057
0.115935373488;-0.8727650465730825;-7.894873385854074
0.116262874543;-0.8847799082739951;-8.342706714722096
0.116590375598;-0.8962336820316005;-8.785249471202134
0.116917876653;-0.9071191043735911;-9.222221014422043
0.117245377708;-0.9174292722507729;-9.653344236524694
0.117572878763;-0.9271576474146663;-10.078345738397186
0.117900379818;-0.9362980605637747;-10.496956003048512
