Mesure32
temps(s);entree;sortie
0.0;1.0;-8.13208729603129
0.000183184931634;0.9996829223075361;-8.002975990482248
0.000366369863268;0.9987318903066703;-7.868789554613396
0.000549554794903;0.9971475070994674;-7.729613083475618
0.000732739726537;0.99493077743107;-7.585534836577547
0.000915924658171;0.992083107052534;-7.4366461819153
0.00109910958981;0.9886063018293647;-7.28304153803099
0.00128229452144;0.9845025665963167;-7.124818314136682
0.00146547945307;0.9797745037591863;-6.962076848341832
0.00164866438471;0.9744251116444819;-6.794920344023326
0.00183184931634;0.9684577825980192;-6.623454804378499
0.00201503424798;0.9618763008336467;-6.447788965202651
0.00219821917961;0.9546848400334659;-6.268034225933638
0.00238140411124;0.946887960701069;-6.084304579007341
0.00256458904288;0.93849060726947;-5.896716537568721
0.00274777397451;0.9294981049655668;-5.705389061584412
0.00293095890615;0.9199161564331194;-5.510443482403587
0.00311414383778;0.9097508381163878;-5.312003425815055
0.00329732876942;0.899008596406722;-5.1101947336492906
0.00348051370105;0.8876962435545485;-4.905145383975149
0.00366369863268;0.8758209533493445;-4.696985409941908
0.00384688356432;0.8633902565703414;-4.485846817318021
0.00403006849595;0.8504120362108399;-4.2718635007789745
0.00421325342759;0.8368945224791678;-4.0551711589972275
0.00439643835922;0.8228462875794489;-3.8359072085881984
0.00457962329085;0.8082762402754935;-3.614210696966764
0.00476280822249;0.7931936202412582;-3.3902222141695795
0.00494599315412;0.7776079922014564;-3.1640838036991807
0.00512917808576;0.761529239866037;-2.9359388724463
0.00531236301739;0.7449675596623766;-2.7059320997476393
0.00549554794903;0.7279334542691597;-2.474209345636675
0.00567873288066;0.7104377259560488;-2.2409175583457337
0.00586191781229;0.692491469733367;-2.0062046811179925
0.00604510274393;0.6741060663161371;-1.7702195583884486
0.00622828767556;0.6552931749069402;-1.53311184139345
0.0064114726072;0.6360647258021697;-1.295031893268535
0.00659465753883;0.6164329128263689;-1.0561306936948505
0.00677784247047;0.5964101855994526;-0.8165597431545716
0.0069610274021;0.5760092416417125;-0.5764709668560537
0.00714421233373;0.5552430183216172;-0.33601661838965385
0.00732739726537;0.5341246846515095;-0.09534918317527477
0.007510582197;0.512667632936407;0.1453787182370655
0.00769376712864;0.4908854702811999;0.38601442695237975
0.00787695206027;0.468792009961631;0.6264053425401822
0.0080601369919;0.4464012626645338;0.8663990198068652
0.00824332192354;0.423727427602879;1.1058432654696435
0.00842650685517;0.4007848835112687;1.344586234670734
0.00860969178681;0.37758817952758156;1.5824765272706123
0.00879287671844;0.3541520259665621;1.8193632838591975
0.00897606165008;0.3304912849911928;2.0550962814241833
0.00915924658171;0.3066209611877746;2.289526028615759
0.00934243151334;0.2825561920506874;2.522503860547355
0.00952561644498;0.25831223838286654;2.7538820330722844
0.00970880137661;0.2339044746180822;2.983513816476486
0.00989198630825;0.2093483790711605;3.2112535885279585
0.0100751712399;0.18465952412232445;3.4369569268239006
0.0102583561715;0.15985356634188824;3.6604807003769304
0.0104415411031;0.13494623656155638;3.8816831603823916
0.0106247260348;0.10995332989863325;4.100424030109112
0.0108079109664;0.08489069573946394;4.316564593856652
0.0109910958981;0.05977422768846161;4.529967784922607
0.0111742808297;0.03461985348909052;4.740498272524204
0.0113574657613;0.009443524923203678;4.94802254761904
0.011540650693;-0.015738792304865468;5.152409007570556
0.0117238356246;-0.04091112869304266;5.353528039604574
0.0119070205562;-0.06605752106865546;5.551252103003911
0.0120902054879;-0.09116202271156759;5.7454558099890365
0.0122733904195;-0.11620871346687627;5.936016005233392
0.0124565753511;-0.14118170984076459;6.122811843963012
0.0126397602828;-0.16606517507310362;6.30572486859088
0.0128229452144;-0.1908433291804215;6.48463908383746
0.013006130146;-0.21550045896286182;6.65944103028971
0.0131893150777;-0.2400209279687964;6.83001985635199
0.0133725000093;-0.2643891864107642;6.996267388543202
0.0135556849409;-0.2885897810264531;7.158078200095574
0.0137388698726;-0.31260736487846846;7.315349677811617
0.0139220548042;-0.3364267070866785;7.467982087136849
0.0141052397358;-0.3600327024869557;7.615878635406976
0.0142884246675;-0.38341038121020066;7.758945533229504
0.0144716095991;-0.40654491817556393;7.89709205396077
0.0146547945307;-0.4294216424918509;8.030230591240745
0.0148379794624;-0.4520260467611475;8.158276714549075
0.015021164394;-0.4743437962787628;8.28114922274714
0.0152043493256;-0.4963607381236604;8.39877019557221
0.0153875342573;-0.5180629101336105;8.511065043050985
0.0155707191889;-0.539436549759368;8.617962552801238
0.0157539041205;-0.5604681027922681;8.719394935191524
0.0159370890522;-0.5811442319597027;8.815297866330345
0.0161202739838;-0.6014518253830199;8.905610528857489
0.0163034589154;-0.621378004892496;8.99027565051169
0.0164866438471;-0.6409101341940938;9.06923954045013
0.0166698287787;-0.6600358268828372;9.142452123296794
0.0168530137103;-0.6787429542977176;9.209866970898021
0.017036198642;-0.6970196532131488;9.271441331765187
0.0172193835736;-0.7148543333620937;9.32713615818577
0.0174025685052;-0.732235684786098;9.376916130985684
0.0175857534369;-0.749152685007559;9.420749681927115
0.0177689383685;-0.7655946060196892;9.458609013727694
0.0179521233002;-0.7815510210897404;9.490470117688291
0.0181353082318;-0.7970118113711714;9.516312788918258
0.0183184931634;-0.8119671723205705;9.536120639148477
0.0185016780951;-0.8264076199152576;9.549881107124055
0.0186848630267;-0.8403239966676301;9.55758546657013
0.0188680479583;-0.8537074774324318;9.559228831725669
0.01905123289;-0.8665495750032662;9.554810160441813
0.0192344178216;-0.8788421454948054;9.544332254842748
0.0194176027532;-0.8905773935072779;9.527801759548733
0.0196007876849;-0.9017478770699623;9.505229157462377
0.0197839726165;-0.9123465123605554;9.476628763120841
0.0199671575481;-0.9223665781974151;9.44201871361821
0.0201503424798;-0.9318017203018334;9.401420957103747
0.0203335274114;-0.940645955327637;9.354861238863364
0.020516712343;-0.9488936746555591;9.302369084993101
0.0206998972747;-0.9565396479499741;9.243977783675003
0.0208830822063;-0.9635790264757449;9.179724364067235
0.0210662671379;-0.9700073461730725;9.109649572821839
0.0212494520696;-0.9758205304884047;9.033797848245031
0.0214326370012;-0.9810148929596044;8.95221729211641
0.0216158219328;-0.9855871395537396;8.864959639184946
0.0217990068645;-0.9895343707560108;8.772080224361128
0.0219821917961;-0.9928540834084959;8.67363794762601
0.0221653767277;-0.9955441722975399;8.56969523667949
0.0223485616594;-0.9976029314887879;8.46031800735144
0.022531746591;-0.9990290554090123;8.345575621800824
0.0227149315226;-0.9998216396740497;8.22554084452932
0.0228981164543;-0.9999801816623203;8.100289796237314
0.0230813013859;-0.9995045808335686;7.969901905551549
0.0232644863175;-0.9983951387926212;7.834459858655027
0.0234476712492;-0.9966525590981226;7.694049546851141
0.0236308561808;-0.9942779468163698;7.548760012095217
0.0238140411124;-0.9912728078205283;7.3986833905280935
0.0239972260441;-0.9876390478356748;7.243914854047489
0.0241804109757;-0.9833789712302713;7.084552549954234
0.0243635959073;-0.9784952795548372;6.920697538711617
0.024546780839;-0.972991069828747;6.752453729857373
0.0247299657706;-0.9668698325762379;6.579927816108861
0.0249131507022;-0.9601354496128763;6.403229205703325
0.0250963356339;-0.9527921915838827;6.222469953016068
0.0252795205655;-0.9448447152558789;6.037764687500555
0.0254627054972;-0.9362980605637746;5.849230540995529
0.0256458904288;-0.9271576474146666;5.6569870734452525
0.0258290753604;-0.9174292722507734;5.461156197079883
0.0260122602921;-0.9071191043735918;5.261862099104199
0.0261954452237;-0.8962336820316007;5.059231162943621
0.0263786301553;-0.8847799082739957;4.8533918880974705
0.026561815087;-0.8727650465730825;4.644474808650314
0.0267450000186;-0.8601967162181083;4.4326124104930935
0.0269281849502;-0.847082887483447;4.217939047306457
0.0271113698819;-0.8334318765742077;4.000590855359673
0.0272945548135;-0.8192523403524686;3.7807056671790735
0.0274777397451;-0.8045532708474802;3.5584229241408045
0.0276609246768;-0.7893439895533219;3.3338835880433337
0.0278441096084;-0.7736341415176284;3.10723005171579
0.02802729454;-0.7574336892251275;2.878606048718741
0.0282104794717;-0.7407529062798784;2.648156562194807
0.0283936644033;-0.7236023708902113;2.4160277329268283
0.0285768493349;-0.7059929591604972;2.1823667666618753
0.0287600342666;-0.6879358381940103;1.9473218407599564
0.0289432191982;-0.669442459011248;1.7110420102265356
0.0291264041298;-0.6505245492882045;1.473677113188492
0.0293095890615;-0.631194105919202;1.235377675873475
0.0294927739931;-0.6114633874089954;0.9962948171528745
0.0296759589247;-0.5913449060989778;0.7565801527090091
0.0298591438564;-0.570851420232408;0.5163856988871739
0.030042328788;-0.5499959258637032;0.27586377629368114
0.0302255137196;-0.5287916486169243;0.035166913200953685
0.0304086986513;-0.50725203529867;-0.2055522511791515
0.0305918835829;-0.4853907453707148;-0.4461410634922958
0.0307750685145;-0.4632216422877893;-0.6864469530475806
0.0309582534462;-0.44075878470599184;-0.9263175285711229
0.0311414383778;-0.418016417567418;-1.1656006748457772
0.0313246233094;-0.39500896306665634;-1.4041446491757938
0.0315078082411;-0.3717510115048711;-1.641798177615318
0.0316909931727;-0.34825731203728777;-1.8784105508995428
0.0318741781043;-0.3245427633199346;-2.1138317200178176
0.032057363036;-0.3006224040615835;-2.3479123913680033
0.0322405479676;-0.2765114034868668;-2.580504121431864
0.0324237328993;-0.25222505171663495;-2.81145941091129
0.0326069178309;-0.22777875007164244;-3.0406317982657884
0.0327901027625;-0.2031880013057207;-3.267875952591826
0.0329732876942;-0.17846839977461731;-3.493047765785259
0.0331564726258;-0.15363562154675828;-3.7160044439282003
0.0333396575574;-0.1287054144621786;-3.936604597842609
0.0335228424891;-0.10369358814594837;-4.154708332752964
0.0337060274207;-0.07861600398241289;-4.370177337001299
0.0338892123523;-0.053488565056610454;-4.582874969758285
0.034072397284;-0.02832720606924352;-4.792666347674761
0.0342555822156;-0.003147883231609593;-4.999418430418682
0.0344387671472;0.022033435853126785;-5.203000105043445
0.0346219520789;0.04720078231586844;-5.403282269133816
0.0348051370105;0.07233819614833167;-5.600137912676929
0.0349883219421;0.09742973632417148;-5.79344219860638
0.0351715068738;0.1224594909080701;-5.983072541968323
0.0353546918054;0.14741158714637292;-6.168908687659355
0.035537876737;0.17227020153288614;-6.35083278668698
0.0357210616687;0.19701956984343552;-6.528729470904156
0.0359042466003;0.22164399713283164;-6.702485926170615
0.0360874315319;0.24612786768790904;-6.8719919638945886
0.0362706164636;0.2704556549303113;-7.037140090909479
0.0364538013952;0.2946119312627562;-7.1978255776412325
0.0366369863268;0.31858137785252594;-7.353946524523147
0.0368201712585;0.34234879434599275;-7.505403926616063
0.0370033561901;0.3658991085080015;-7.652101736392857
0.0371865411217;0.38921738578001036;-7.793946924647506
0.0373697260534;0.4122888387509185;-7.930849539490042
0.037552910985;0.4350988365345878;-8.062722763390063
0.0377360959166;0.4576329140480921;-8.189482968232495
0.0379192808483;0.47987678118483257;-8.311049768350847
0.0381024657799;0.5018163318766827;-8.427346071504196
0.0382856507115;0.5234376530394286;-8.538298127765648
0.0384688356432;0.5447270333958255;-8.64383557629126
0.0386520205748;0.5656709721706801;-8.74389148993974
0.0388352055064;0.5862561876524338;-8.838402417714644
0.0390183904381;0.6064696256158404;-8.927308425002195
0.0392015753697;0.6262984676003674;-9.010553131579119
0.0393847603014;0.6457301390390937;-9.08808374736647
0.039567945233;0.664752317232938;-9.159851105906757
0.0397511301646;0.6833529391651665;-9.225809695543095
0.0399343150963;0.7015202091512165;-9.285917688280684
0.0401175000279;0.7192426063189974;-9.34013696631225
0.0403006849595;0.7365088919149121;-9.38843314619067
0.0404838698912;0.7533081164309712;-9.430775600633394
0.0406670548228;0.7696296265484857;-9.46713747794493
0.0408502397544;0.7854630718939248;-9.497495719044975
0.0410334246861;0.80079841160266;-9.521831072091459
0.0412166096177;0.8156259206864356;-9.5401281046892
0.0413997945493;0.8299361962005212;-9.552375213676452
0.041582979481;0.8437201632066396;-9.558564632483098
0.0417661644126;0.8569690805278887;-9.558692436055875
0.0419493493442;0.8696745462920044;-9.552758543347457
0.0421325342759;0.8818285032594537;-9.540766717367857
0.0423157192075;0.8934232439329782;-9.522724562798102
0.0424989041391;0.9044514154453429;-9.49864352116766
0.0426820890708;0.9149060242221972;-9.468538863598761
0.0428652740024;0.9247804404170882;-9.432429681122109
0.043048458934;0.9340684021158129;-9.39033887257022
0.0432316438657;0.9427640193074448;-9.342293130055994
0.0434148287973;0.9508617776195164;-9.288322922045769
0.0435980137289;0.9583565418149884;-9.228462474037578
0.0437811986606;0.9652435590487877;-9.162749746856873
0.0439643835922;0.9715184618818491;-9.09122641258345
0.0441475685238;0.9771772710507515;-9.013937828124886
0.0443307534555;0.9822163979911877;-8.930933006453216
0.0445139383871;0.9866326471136733;-8.842264585523072
0.0446971233187;0.9904232178300462;-8.747988794891063
0.0448803082504;0.9935857063294745;-8.64816542005748
0.045063493182;0.9961181071028467;-8.542857764553023
0.0452466781136;0.9980188142145753;-8.432132609794499
0.0454298630453;0.9992866223210104;-8.316060172735051
0.0456130479769;0.9999207274348142;-8.194714061335679
0.0457962329085;0.9999207274348142;-8.068171227886367
0.0459794178402;0.9992866223210104;-7.93651192020637
0.0461626027718;0.9980188142145754;-7.79981963075463
0.0463457877035;0.9961181071028467;-7.65818104368257
0.0465289726351;0.9935857063294746;-7.511685979862918
0.0467121575667;0.9904232178300464;-7.360427339929246
0.0468953424984;0.9866326471136735;-7.20450104536259
0.04707852743;0.982216397991188;-7.044005977662295
0.0472617123616;0.9771772710507518;-6.879043915639804
0.0474448972933;0.9715184618818496;-6.709719470875054
0.0476280822249;0.965243559048788;-6.536140021376488
0.0478112671565;0.9583565418149885;-6.358415643486721
0.0479944520882;0.9508617776195165;-6.176659042077035
0.0481776370198;0.942764019307445;-5.9909854790749515
0.0483608219514;0.9340684021158133;-5.801512700370289
0.0485440068831;0.9247804404170891;-5.6083608611459566
0.0487271918147;0.9149060242221978;-5.411652449680905
0.0489103767463;0.9044514154453435;-5.211512209673535
0.049093561678;0.8934232439329789;-5.008067061134786
0.0492767466096;0.8818285032594539;-4.801446019901129
0.0494599315412;0.8696745462920046;-4.591780115818518
0.0496431164729;0.8569690805278894;-4.379202309649057
0.0498263014045;0.8437201632066403;-4.163847408753235
0.0500094863361;0.829936196200522;-3.9458519816011424
0.0501926712678;0.8156259206864364;-3.725354271166789
0.0503758561994;0.8007984116026609;-3.50249410726061
0.050559041131;0.7854630718939257;-3.2774128178556343
0.0507422260627;0.7696296265484871;-3.050253139463584
0.0509254109943;0.7533081164309715;-2.821159126617733
0.0511085959259;0.7365088919149124;-2.590276060520015
0.0512917808576;0.7192426063189983;-2.3577503569100684
0.0514749657892;0.7015202091512174;-2.123729473214972
0.0516581507208;0.6833529391651676;-1.8883618150383061
0.0518413356525;0.6647523172329398;-1.6517966420479415
0.0520245205841;0.6457301390390947;-1.4141839733222077
0.0522077055157;0.6262984676003686;-1.1756744922145217
0.0523908904474;0.6064696256158407;-0.9364194507966668
0.052574075379;0.5862561876524341;-0.6965705739415464
0.0527572603106;0.5656709721706805;-0.4562799631059787
0.0529404452423;0.5447270333958274;-0.2156999998747726
0.0531236301739;0.5234376530394298;0.025016750672891476
0.0533068151055;0.501816331876684;0.26571763671339443
0.0534900000372;0.47987678118483373;0.5062500164837054
0.0536731849688;0.4576329140480933;0.7464613550799432
0.0538563699005;0.43509883653458825;0.9861993211882251
0.0540395548321;0.41228883875091976;1.2253118836863548
0.0542227397637;0.3892173857800108;1.463647408055237
0.0544059246954;0.3658991085080028;1.7010547525386568
0.054589109627;0.342348794345994;1.9373833639906968
0.0547722945586;0.3185813778525272;2.1724833733497926
0.0549554794903;0.29461193126275753;2.4062056906790126
0.0551386644219;0.2704556549303135;2.6384020997122435
0.0553218493535;0.2461278676879095;2.868925351846354
0.0555050342852;0.22164399713283212;3.097629259519618
0.0556882192168;0.197019569843436;3.324368788917448
0.0558714041484;0.1722702015328875;3.5490001519463
0.0560545890801;0.14741158714637428;3.771380897417685
0.0562377740117;0.12245949090807146;3.9913700013843583
0.0564209589433;0.09742973632417286;4.2088279565714215
0.056604143875;0.07233819614833305;4.423616860845582
0.0567873288066;0.04720078231586982;4.63560050466658
0.0569705137382;0.022033435853127274;4.844644457465177
0.0571536986699;-0.0031478832316091027;5.050616152893003
0.0573368836015;-0.028327206069243032;5.253384972890269
0.0575200685331;-0.05348856505660907;5.452822330517884
0.0577032534648;-0.07861600398241152;5.648801751501538
0.0578864383964;-0.103693588145947;5.841198954436089
0.058069623328;-0.12870541446217723;6.0298919295992475
0.0582528082597;-0.15363562154675692;6.214761016324719
0.0584359931913;-0.17846839977461684;6.395688978885653
0.0586191781229;-0.20318800130571849;6.572561080840291
0.0588023630546;-0.2277787500716411;6.745265157792759
0.0589855479862;-0.2522250517166336;6.913691688522646
0.0591687329178;-0.27651140348686637;7.077733864438525
0.0593519178495;-0.3006224040615822;7.237287657311172
0.0595351027811;-0.3245427633199341;7.392251885243675
0.0597182877127;-0.3482573120372856;7.5425282768363955
0.0599014726444;-0.37175101150486983;7.6880215335064
0.060084657576;-0.39500896306665584;7.82863938992149
0.0602678425076;-0.41801641756741675;7.964292672510792
0.0604510274393;-0.44075878470599056;8.09489535601469
0.0606342123709;-0.4632216422877873;8.220364618038133
0.0608173973026;-0.4853907453707136;8.340620891572987
0.0610005822342;-0.5072520352986689;8.455587915455807
0.0611837671658;-0.5287916486169238;8.565192782729309
0.0613669520975;-0.549995925863702;8.66936598687669
0.0615501370291;-0.5708514202324068;8.76804146589959
0.0617333219607;-0.591344906098976;8.861156644211611
0.0619165068924;-0.6114633874089943;8.948652472321022
0.062099691824;-0.6311941059192009;9.030473464277264
0.0622828767556;-0.6505245492882041;9.106567732857684
0.0624660616873;-0.669442459011247;9.176887022472098
0.0626492466189;-0.6879358381940099;9.241386739764339
0.0628324315505;-0.7059929591604959;9.300025981891354
0.0630156164822;-0.7236023708902104;9.352767562461988
0.0631988014138;-0.740752906279877;9.399578035118903
0.0633819863454;-0.7574336892251264;9.440427714748802
0.0635651712771;-0.7736341415176268;9.475290696307368
0.0637483562087;-0.7893439895533219;9.504144871247117
0.0639315411403;-0.8045532708474801;9.526971941537626
0.064114726072;-0.8192523403524681;9.543757431269352
0.0642979110036;-0.8334318765742077;9.554490695833593
0.0644810959352;-0.8470828874834463;9.559164928672828
0.0646642808669;-0.8601967162181079;9.557777165597132
0.0648474657985;-0.8727650465730816;9.550328286663932
0.0650306507301;-0.8847799082739951;9.536823015619914
0.0652138356618;-0.8962336820316005;9.517269916905434
0.0653970205934;-0.9071191043735911;9.49168139022334
0.065580205525;-0.9174292722507729;9.460073662675613
0.0657633904567;-0.9271576474146657;9.422466778472888
0.0659465753883;-0.9362980605637747;9.378884586223286
0.0661297603199;-0.9448447152558784;9.329354723808718
