Mesure24
temps(s);entree;sortie
0.0;1.0;1.2658066009079079
0.000254374822663;0.9996829223075361;1.8996733556866814
0.000508749645325;0.9987318903066703;2.532335422377342
0.000763124467988;0.9971475070994674;3.1633915949234592
0.00101749929065;0.99493077743107;3.792441685655025
0.00127187411331;0.992083107052534;4.419086779069602
0.00152624893598;0.9886063018293647;5.042929484806768
0.00178062375864;0.9845025665963166;5.663574189655333
0.0020349985813;0.9797745037591863;6.280627308433589
0.00228937340396;0.9744251116444819;6.8936975335834765
0.00254374822663;0.9684577825980192;7.5023960833203835
0.00279812304929;0.9618763008336466;8.106336948181186
0.00305249787195;0.9546848400334659;8.705137135814258
0.00330687269461;0.946887960701069;9.298416913856117
0.00356124751728;0.93849060726947;9.885800050740752
0.00381562233994;0.9294981049655667;10.466914054288893
0.0040699971626;0.9199161564331194;11.041390407925919
0.00432437198527;0.9097508381163878;11.608864804378678
0.00457874680793;0.899008596406722;12.168977376702834
0.00483312163059;0.8876962435545485;12.721372926494489
0.00508749645325;0.8758209533493445;13.265701149141135
0.00534187127592;0.8633902565703414;13.801616855969202
0.00559624609858;0.8504120362108398;14.32878019314735
0.00585062092124;0.8368945224791677;14.846856857206566
0.0061049957439;0.8228462875794489;15.355518307040525
0.00635937056657;0.8082762402754934;15.85444197225172
0.00661374538923;0.7931936202412581;16.343311457711184
0.00686812021189;0.7776079922014563;16.821816744202188
0.00712249503456;0.7615292398660369;17.289654385020583
0.00737686985722;0.7449675596623765;17.746527698407178
0.00763124467988;0.7279334542691596;18.192146955690053
0.00788561950254;0.7104377259560487;18.626229565017578
0.00813999432521;0.6924914697333668;19.048500250565542
0.00839436914787;0.6741060663161369;19.458691227104815
0.00864874397053;0.6552931749069401;19.856542369818765
0.00890311879319;0.6360647258021694;20.24180137926285
0.00915749361586;0.6164329128263689;20.614223941361626
0.00941186843852;0.5964101855994525;20.97357388234189
0.00966624326118;0.5760092416417124;21.319623318503474
0.00992061808384;0.5552430183216169;21.652152800733
0.0101749929065;0.5341246846515092;21.970951453668658
0.0104293677292;0.5126676329364068;22.27581710942798
0.0106837425518;0.4908854702811999;22.56655643581369
0.0109381173745;0.4687920099616308;22.84298505891635
0.0111924921972;0.44640126266453356;23.10492768003607
0.0114468670198;0.423727427602879;23.35221818684913
0.0117012418425;0.4007848835112683;23.584699758748982
0.0119556166651;0.37758817952758134;23.80222496629492
0.0122099914878;0.3541520259665621;24.004655864705214
0.0124643663105;0.33049128499119257;24.191864081335563
0.0127187411331;0.3066209611877744;24.363730897087294
0.0129731159558;0.28255619205068716;24.5201473216937
0.0132274907785;0.2583122383828663;24.66101416283683
0.0134818656011;0.23390447461808198;24.786242089050813
0.0137362404238;0.20934837907116005;24.895751686371895
0.0139906152464;0.18465952412232423;24.989473508699238
0.0142449900691;0.15985356634188802;25.067348121834527
0.0144993648918;0.13494623656155616;25.12932614117249
0.0147537397144;0.10995332989863303;25.175368263018424
0.0150081145371;0.08489069573946371;25.20544528951282
0.0152624893598;0.05977422768846117;25.21953814714736
0.0155168641824;0.034619853489090295;25.2176378988605
0.0157712390051;0.009443524923203456;25.199745749704913
0.0160256138277;-0.015738792304865912;25.165873046083334
0.0162799886504;-0.040911128693042885;25.116041268553175
0.0165343634731;-0.06605752106865591;25.050282018204484
0.0167887382957;-0.09116202271156804;24.968636996619992
0.0170431131184;-0.11620871346687671;24.871157979429782
0.0172974879411;-0.1411817098407648;24.757906783477523
0.0175518627637;-0.16606517507310428;24.62895522761898
0.0178062375864;-0.19084332918042193;24.484385087177692
0.0180606124091;-0.21550045896286202;24.324288042086724
0.0183149872317;-0.24002092796879662;24.14876561874933
0.0185693620544;-0.2643891864107644;23.957929125655443
0.018823736877;-0.2885897810264533;23.751899582794803
0.0190781116997;-0.3126073648784689;23.530807644911462
0.0193324865224;-0.3364267070866787;23.2947935186484
0.019586861345;-0.3600327024869559;23.044006873634704
0.0198412361677;-0.3834103812102011;22.77860674757178
0.0200956109904;-0.4065449181755644;22.498761445378722
0.020349985813;-0.4294216424918517;22.20464843246087
0.0206043606357;-0.4520260467611479;21.896454222169147
0.0208587354583;-0.47434379627876316;21.574374257521605
0.021113110281;-0.49636073812366116;21.238612787262202
0.0213674851037;-0.5180629101336105;20.889382736335374
0.0216218599263;-0.539436549759368;20.52690557085846
0.021876234749;-0.5604681027922686;20.151411157677888
0.0221306095717;-0.5811442319597027;19.76313761859778
0.0223849843943;-0.6014518253830202;19.36233117937376
0.022639359217;-0.6213780048924964;18.949246013567585
0.0228937340396;-0.6409101341940938;18.524144081361587
0.0231481088623;-0.6600358268828376;18.08729496343521
0.023402483685;-0.6787429542977182;17.638975690008987
0.0236568585076;-0.6970196532131488;17.179470565164344
0.0239112333303;-0.714854333362094;16.709070986550582
0.024165608153;-0.7322356847860982;16.228075260593567
0.0244199829756;-0.749152685007559;15.736788413323026
0.0246743577983;-0.7655946060196894;15.235521996938699
0.0249287326209;-0.7815510210897406;14.724593892237825
0.0251831074436;-0.7970118113711716;14.204328107029323
0.0254374822663;-0.8119671723205707;13.675054570662457
0.0256918570889;-0.826407619915258;13.137108924800422
0.0259462319116;-0.8403239966676304;12.590832310571347
0.0262006067343;-0.853707477432432;12.036571152231792
0.0264549815569;-0.8665495750032665;11.47467693747999
0.0267093563796;-0.8788421454948059;10.905505994557968
0.0269637312022;-0.890577393507278;10.329419266284134
0.0272181060249;-0.9017478770699624;9.746782081159417
0.0274724808476;-0.9123465123605558;9.157963921692204
0.0277268556702;-0.9223665781974153;8.563338190089086
0.0279812304929;-0.9318017203018335;7.96328197145975
0.0282356053156;-0.9406459553276372;7.358175794686528
0.0284899801382;-0.9488936746555592;6.748403391109846
0.0287443549609;-0.9565396479499744;6.134351451183039
0.0289987297835;-0.963579026475745;5.516409379250412
0.0292531046062;-0.9700073461730726;4.8949690466044675
0.0295074794289;-0.9758205304884048;4.270424542978573
0.0297618542515;-0.9810148929596045;3.6431719266328106
0.0300162290742;-0.9855871395537396;3.0136089731915554
0.0302706038969;-0.9895343707560108;2.3821349233918947
0.0305249787195;-0.992854083408496;1.7491502299029291
0.0307793535422;-0.99554417229754;1.1150563033766228
0.0310337283648;-0.9976029314887879;0.48025525789105467
0.0312881031875;-0.9990290554090123;-0.15485034405246734
0.0315424780102;-0.9998216396740497;-0.7898577468164506
0.0317968528328;-0.9999801816623203;-1.424364257036952
0.0320512276555;-0.9995045808335686;-2.0579674989937655
0.0323056024782;-0.9983951387926212;-2.690265669779086
0.0325599773008;-0.9966525590981226;-3.320857794103018
0.0328143521235;-0.9942779468163697;-3.949343978574251
0.0330687269461;-0.9912728078205282;-4.575325665294538
0.0333231017688;-0.9876390478356747;-5.198405884606369
0.0335774765915;-0.9833789712302711;-5.8181895068334475
0.0338318514141;-0.9784952795548371;-6.434283492854225
0.0340862262368;-0.9729910698287467;-7.046297143349868
0.0343406010595;-0.9668698325762377;-7.653842346568252
0.0345949758821;-0.9601354496128762;-8.25653382444716
0.0348493507048;-0.9527921915838824;-8.853989376940467
0.0351037255275;-0.9448447152558784;-9.445830124392293
0.0353581003501;-0.9362980605637744;-10.031680747805611
0.0356124751728;-0.9271576474146662;-10.61116972685284
0.0358668499954;-0.9174292722507733;-11.18392957547738
0.0361212248181;-0.9071191043735917;-11.749597074937
0.0363755996408;-0.8962336820316007;-12.307813504140803
0.0366299744634;-0.8847799082739954;-12.858224867134279
0.0368843492861;-0.8727650465730823;-13.400482117587645
0.0371387241088;-0.8601967162181081;-13.934241380145505
0.0373930989314;-0.8470828874834467;-14.45916416849727
0.0376474737541;-0.8334318765742075;-14.974917600030027
0.0379018485767;-0.8192523403524683;-15.481174606927862
0.0381562233994;-0.8045532708474796;-15.977614143583715
0.0384105982221;-0.7893439895533219;-16.463921390192105
0.0386649730447;-0.7736341415176282;-16.939787952393882
0.0389193478674;-0.757433689225127;-17.40491205684611
0.0391737226901;-0.7407529062798782;-17.85899874259329
0.0394280975127;-0.7236023708902107;-18.30176004811844
0.0396824723354;-0.7059929591604965;-18.732915193955417
0.039936847158;-0.6879358381940099;-19.152190760746738
0.0401912219807;-0.6694424590112473;-19.559320862633978
0.0404455968034;-0.6505245492882038;-19.954047315870636
0.040699971626;-0.6311941059192006;-20.336119802550844
0.0409543464487;-0.6114633874089946;-20.70529602934971
0.0412087212714;-0.5913449060989772;-21.061341881175036
0.041463096094;-0.5708514202324064;-21.404031569632625
0.0417174709167;-0.5499959258637024;-21.733147776211148
0.0419718457393;-0.5287916486169235;-22.048481790095956
0.042226220562;-0.5072520352986686;-22.3498336405241
0.0424805953847;-0.4853907453707148;-22.63701222359684
0.0427349702073;-0.4632216422877893;-22.90983542346932
0.04298934503;-0.440758784705991;-23.1681302278402
0.0432437198527;-0.418016417567418;-23.41173283766838
0.0434980946753;-0.39500896306665634;-23.64048877104706
0.043752469498;-0.37175101150487033;-23.854252961169262
0.0440068443206;-0.34825731203728694;-24.052889848322693
0.0442612191433;-0.3245427633199346;-24.23627346585574
0.044515593966;-0.30062240406158264;-24.404287520059828
0.0447699687886;-0.276511403486866;-24.55682546391774
0.0450243436113;-0.2522250517166341;-24.693790564670973
0.045278718434;-0.22777875007164158;-24.81509596516334
0.0455330932566;-0.20318800130571982;-24.920664738921896
0.0457874680793;-0.17846839977461731;-25.01042993894028
0.0460418429019;-0.1536356215467574;-25.084334640133523
0.0462962177246;-0.12870541446217773;-25.142331975437394
0.0465505925473;-0.1036935881459475;-25.18438516552939
0.0468049673699;-0.07861600398241111;-25.210467542152575
0.0470593421926;-0.05348856505660868;-25.22056256502735
0.0473137170153;-0.02832720606924352;-25.214663832340605
0.0475680918379;-0.003147883231609593;-25.192775084805433
0.0478224666606;0.022033435853127673;-25.154910203288953
0.0480768414832;0.04720078231586933;-25.10109320000968
0.0483312163059;0.07233819614833256;-25.031358203310045
0.0485855911286;0.09742973632417325;-24.945749436013717
0.0488399659512;0.1224594909080701;-24.84432118738149
0.0490943407739;0.1474115871463738;-24.727137778683396
0.0493487155966;0.17227020153288702;-24.5942735224091
0.0496030904192;0.19701956984343552;-24.44581267514218
0.0498574652419;0.2216439971328325;-24.28184938412837
0.0501118400645;0.2461278676879099;-24.10248762757162
0.0503662148872;0.27045565493031215;-23.90784114869568
0.0506205897099;0.29461193126275703;-23.698033383613293
0.0508749645325;0.31858137785252677;-23.47319738304849
0.0511293393552;0.3423487943459936;-23.233475727961753
0.0513837141779;0.3658991085080031;-22.979020439131528
0.0516380890005;0.3892173857800112;-22.709992880749468
0.0518924638232;0.41228883875091926;-22.42656365809041
0.0521468386458;0.4350988365345878;-22.12891250932214
0.0524012134685;0.4576329140480929;-21.817228191523476
0.0526555882912;0.47987678118483335;-21.491708360982972
0.0529099631138;0.5018163318766835;-21.15255944785405
0.0531643379365;0.5234376530394301;-20.799996525246247
0.0534187127592;0.544727033395827;-20.43424317283549
0.0536730875818;0.5656709721706801;-20.055531335079756
0.0539274624045;0.5862561876524345;-19.664101174130277
0.0541818372272;0.6064696256158411;-19.26020091753147
0.0544362120498;0.6262984676003681;-18.844086700806017
0.0546905868725;0.645730139039095;-18.416022405025185
0.0549449616951;0.6647523172329394;-17.976279489467267
0.0551993365178;0.6833529391651672;-17.525136819470138
0.0554537113405;0.701520209151217;-17.06288048958734
0.0557080861631;0.719242606318998;-16.58980364215969
0.0559624609858;0.7365088919149128;-16.10620628141746
0.0562168358085;0.7533081164309717;-15.612395083231101
0.0564712106311;0.7696296265484862;-15.108683200631125
0.0567255854538;0.7854630718939248;-14.595390065220261
0.0569799602764;0.8007984116026605;-14.07284118460442
0.0572343350991;0.8156259206864361;-13.541367935970158
0.0574887099218;0.8299361962005216;-13.001307355939973
0.0577430847444;0.8437201632066406;-12.453001926838919
0.0579974595671;0.8569690805278891;-11.89679935950748
0.0582518343898;0.8696745462920044;-11.333052372798765
0.0585062092124;0.8818285032594542;-10.762118469900168
0.0587605840351;0.8934232439329787;-10.18435971162069
0.0590149588577;0.9044514154453432;-9.600142486788007
0.0592693336804;0.914906024222198;-9.009837279901252
0.0595237085031;0.9247804404170888;-8.413818436186165
0.0597780833257;0.9340684021158132;-7.812463924201922
0.0600324581484;0.9427640193074451;-7.206155096150592
0.0602868329711;0.9508617776195166;-6.595276446040455
0.0605412077937;0.9583565418149886;-5.980215365856931
0.0607955826164;0.9652435590487881;-5.361361899896119
0.061049957439;0.9715184618818495;-4.739108497415985
0.0613043322617;0.9771772710507517;-4.1138497637624125
0.0615587070844;0.982216397991188;-3.485982210128366
0.061813081907;0.9866326471136736;-2.8559040021040483
0.0620674567297;0.9904232178300463;-2.2240147071779592
0.0623218315524;0.9935857063294746;-1.5907150413491098
0.062576206375;0.9961181071028467;-0.9564066150109028
0.0628305811977;0.9980188142145754;-0.32149167826760605
0.0630849560203;0.9992866223210104;0.3136271341546288
0.063339330843;0.9999207274348142;0.9485470582409248
0.0635937056657;0.9999207274348142;1.582865456102335
0.0638480804883;0.9992866223210104;2.2161800713111863
0.064102455311;0.9980188142145753;2.8480892839938456
0.0643568301337;0.9961181071028465;3.4781923655203046
0.0646112049563;0.9935857063294745;4.10608973262831
0.064865579779;0.990423217830046;4.731383200821416
0.0651199546016;0.9866326471136734;5.353676236879519
0.0653743294243;0.9822163979911878;5.972574210322889
0.065628704247;0.9771772710507514;6.5876846436689
0.0658830790696;0.9715184618818494;7.19861746132388
0.0661374538923;0.9652435590487876;7.804985236951767
0.066391828715;0.9583565418149885;8.406403439162316
0.0666462035376;0.9508617776195163;9.002490675364088
0.0669005783603;0.9427640193074447;9.592868933626312
0.0671549531829;0.9340684021158128;10.17716382239737
0.0674093280056;0.9247804404170887;10.75500480792712
0.0676637028283;0.9149060242221975;11.326025449243039
0.0679180776509;0.9044514154453431;11.88986363053045
0.0681724524736;0.8934232439329781;12.44616179077054
0.0684268272963;0.8818285032594535;12.99456715048933
0.0686812021189;0.8696745462920037;13.534731935474829
0.0689355769416;0.856969080527889;14.066313597319853
0.0691899517642;0.8437201632066398;14.588975030651092
0.0694443265869;0.8299361962005214;15.102384786906025
0.0696987014096;0.8156259206864354;15.606217284523126
0.0699530762322;0.8007984116026597;16.100153015410893
0.0702074510549;0.7854630718939241;16.58387874756577
0.0704618258776;0.7696296265484859;17.057087723709856
0.0707162007002;0.753308116430971;17.519479855822794
0.0709705755229;0.7365088919149119;17.970761915443997
0.0712249503456;0.7192426063189971;18.410647719625295
0.0714793251682;0.7015202091512168;18.83885831241515
0.0717336999909;0.6833529391651669;19.255122141760324
0.0719880748135;0.6647523172329385;19.65917523171186
0.0722424496362;0.645730139039094;20.05076134982693
0.0724968244589;0.6262984676003671;20.429632169660135
0.0727511992815;0.6064696256158407;20.795547428240827
0.0730055741042;0.5862561876524335;21.1482750784374
0.0732599489269;0.5656709721706797;21.487591436111046
0.0735143237495;0.544727033395826;21.813281321966354
0.0737686985722;0.523437653039429;22.125138198008365
0.0740230733948;0.5018163318766824;22.422964298519855
0.0742774482175;0.47987678118483296;22.706570755475376
0.0745318230402;0.45763291404809175;22.97577771831308
0.0747861978628;0.4350988365345875;23.230414467987814
0.0750405726855;0.4122888387509181;23.470319525233563
0.0752949475082;0.38921738578001;23.69534075296639
0.0755493223308;0.3658991085080011;23.90533545276304
0.0758036971535;0.3423487943459932;24.100170455353798
0.0760580719761;0.31858137785252555;24.279722205072627
0.0763124467988;0.2946119312627558;24.443876838210553
0.0765668216215;0.27045565493031093;24.592530255223014
0.0768211964441;0.2461278676879095;24.725588186745114
0.0770755712668;0.2216439971328304;24.842966253373085
0.0773299460895;0.19701956984343513;24.944590019173894
0.0775843209121;0.17227020153288575;25.03039503888923
0.0778386957348;0.14741158714637254;25.100326898803782
0.0780930705574;0.12245949090806882;25.154341251252006
0.0783474453801;0.09742973632417197;25.19240384274143
0.0786018202028;0.07233819614833217;25.214490535674706
0.0788561950254;0.047200782315868044;25.22058732365657
0.0791105698481;0.022033435853126386;25.210690340376093
0.0793649446708;-0.003147883231610879;25.184805862058514
0.0796193194934;-0.02832720606924392;25.14295030348515
0.0798736943161;-0.05348856505660996;25.085150207583855
0.0801280691387;-0.0786160039824124;25.0114422285967
0.0803824439614;-0.10369358814594877;24.92187310883546
0.0806368187841;-0.12870541446217812;24.816499649039766
0.0808911936067;-0.15363562154675867;24.695388672356568
0.0811455684294;-0.1784683997746186;24.558616981963908
0.0813999432521;-0.20318800130572195;24.406271312365753
0.0816543180747;-0.22777875007164283;24.238448274388862
0.0819086928974;-0.25222505171663534;24.055254293916455
0.08216306772;-0.27651140348686637;23.85680554439777
0.0824174425427;-0.30062240406158386;23.64322787317591
0.0826718173654;-0.32454276331993576;23.414656721681197
0.082926192188;-0.34825731203728894;23.17123703954019
0.0831805670107;-0.3717510115048715;22.91312319265514
0.0834349418334;-0.3950089630666575;22.64047886531193
0.083689316656;-0.41801641756741836;22.353476956378955
0.0839436914787;-0.44075878470599217;22.052299469662213
0.0841980663013;-0.46322164228778884;21.737137398486762
0.084452441124;-0.4853907453707167;21.408190604577097
0.0847068159467;-0.5072520352986704;21.065667691314022
0.0849611907693;-0.5287916486169238;20.7097858714474
0.085215565592;-0.5499959258637035;20.340770829349676
0.0854699404147;-0.5708514202324068;19.958856577896956
0.0857243152373;-0.5913449060989774;19.564285310068332
0.08597869006;-0.6114633874089958;19.157307245358066
0.0862330648826;-0.6311941059192023;18.738180471097436
0.0864874397053;-0.6505245492882041;18.307170778787338
0.086741814528;-0.6694424590112483;17.864551495545044
0.0869961893506;-0.6879358381940099;17.410603310772565
0.0872505641733;-0.7059929591604972;16.94561409815568
0.087504938996;-0.7236023708902116;16.469878733107542
0.0877593138186;-0.7407529062798793;15.983698905771691
0.0880136886413;-0.7574336892251275;15.487382929703715
0.088268063464;-0.773634141517629;14.981245546352392
0.0885224382866;-0.7893439895533219;14.46560772546496
0.0887768131093;-0.8045532708474801;13.94079646154213
0.0890311879319;-0.8192523403524691;13.40714456647303
0.0892855627546;-0.8334318765742087;12.864990458480595
0.0895399375773;-0.8470828874834472;12.314677947511907
0.0897943123999;-0.8601967162181088;11.756556017209112
0.0900486872226;-0.8727650465730825;11.190978603599836
0.0903030620453;-0.8847799082739959;10.618304370646436
0.0905574368679;-0.8962336820316013;10.038896482797586
0.0908118116906;-0.9071191043735926;9.453122374685437
0.0910661865132;-0.9174292722507736;8.861353518115038
0.0913205613359;-0.9271576474146663;8.26396518649338
